9.838522996093961304e-01;8.196453880775740608e-02;7.719240562296235397e-02;6.266793911096610326e-02;5.922293636971565772e-02;4.330553500405805167e-02;4.301987844431287566e-02;3.354780740394241317e-02;3.318117617781015521e-02;2.677213623625731426e-02;2.630113565379187113e-02;2.485110917033858668e-02;2.473911979586542603e-02;2.128373737624513623e-02;2.067334124895647829e-02;1.924771511774783783e-02;1.907172628098141934e-02;1.656145284197376236e-02;1.426715813991763677e-02;1.369205230621843919e-02;1.205090458886378182e-02;1.116287627744744909e-02;1.100540554008632918e-02;8.347558640154871534e-03;8.110742080556277572e-03;7.800263369692580356e-03;7.088621485760174951e-03;6.959427984468952340e-03;6.401631449385112964e-03;6.346128559521367098e-03;5.599943595383528525e-03;5.203096104115706444e-03;4.985982417534262287e-03;4.539576868414462764e-03;3.961024513478377494e-03;3.130172713549993473e-03;2.967157814632473238e-03;2.894064206564403181e-03;2.751978032379687016e-03;2.633932368127241651e-03;2.620491598203661919e-03;2.607094956370792794e-03;2.568711228403148389e-03;2.484939482515889468e-03;2.482824749379304499e-03;2.456181136061459398e-03;2.369934288021366929e-03;2.330989646330574021e-03;2.185976913973692801e-03;2.148694688686327188e-03;2.050088680367869506e-03;2.048819654282304017e-03;2.024167089928126037e-03;1.861468018799793556e-03;1.775904791137867915e-03;1.725311047583877148e-03;1.685921867951360471e-03;1.650319428396798422e-03;1.625097146517782759e-03;1.613131206890028617e-03;1.557662500123386737e-03;1.468933322436852566e-03;1.416203295481021154e-03;1.414053265584328369e-03;1.341874682727878850e-03;1.258494063809638538e-03;1.235768780516577521e-03;1.146438752856660751e-03;1.001782844316296021e-03;9.320295913974347302e-04;8.682809444403263204e-04;8.243189709686509587e-04;8.058910543682353770e-04;7.888068804368699718e-04;7.808116727942016055e-04;7.071198841720205148e-04;6.949018372707873627e-04;6.867469611603446884e-04;6.524802968800009302e-04;6.518814952480656358e-04;6.156064031783662228e-04;6.145129913566412016e-04;5.974748310291806567e-04;5.686328678174837944e-04;5.625095852611014004e-04;5.072299625668672419e-04;4.985766993174685488e-04;4.910375982323446787e-04;4.890623444829549256e-04;4.760498587760815330e-04;4.730972501197619386e-04;4.695808281022195957e-04;4.616606857707766668e-04;4.413108074570269560e-04;4.203520517781327015e-04;4.095667387442669194e-04;3.938680783766601600e-04;3.913010872796778288e-04;3.729639948150731735e-04;3.700153183414174769e-04;3.681390704725672554e-04;3.677059450750378854e-04;3.661492726833881516e-04;3.560875388762552445e-04;3.412835520361465636e-04;3.373342249669294773e-04;3.251915696104456816e-04;3.213374116037901579e-04;3.151616310005415857e-04;3.038681400388551306e-04;3.037915446898583000e-04;2.892614748884467842e-04;2.757570213036413150e-04;2.638213501881797444e-04;2.546247780023063031e-04;2.350827266942523365e-04;2.335901800537194567e-04;2.334823332784625245e-04;2.231337471472090168e-04;2.225886295476241456e-04;2.221048213618458740e-04;2.209942912829896094e-04;2.196931691920805648e-04;2.177968767755283192e-04;2.147381821311848790e-04;2.132155466379287130e-04;2.044440690358988199e-04;1.981487706692503816e-04;1.949139425187078648e-04;1.935142190986497497e-04;1.893627877199499990e-04;1.830934140651934588e-04;1.756253945163915604e-04;1.747886599149530264e-04;1.741065069857629854e-04;1.662965173400347114e-04;1.657798159692004507e-04;1.622720973923042170e-04;1.588294490072768143e-04;1.580179911094204879e-04;1.572135087954117951e-04;1.570358586574255473e-04;1.530849870934901705e-04;1.493437548455168724e-04;1.473883364011731995e-04;1.467467754398114367e-04;1.466938300464441889e-04;1.466482287233572665e-04;1.459657201287450088e-04;1.448175884336546325e-04;1.404673140314757860e-04;1.399759040605513566e-04;1.397612271213310390e-04;1.395857722055350971e-04;1.394530366706522135e-04;1.392285358644877139e-04;1.374502245102632791e-04;1.366628562492345610e-04;1.359842705452729431e-04;1.358394222613122453e-04;1.351358120416413535e-04;1.341700227072953246e-04;1.338521046759102518e-04;1.330879909329046016e-04;1.317525570715066623e-04;1.313630995142678207e-04;1.313169623359886485e-04;1.300896787094149034e-04;1.300557336607150122e-04;1.299216801126538219e-04;1.298831371491615376e-04;1.295751837012389183e-04;1.279409227839507313e-04;1.277365697685413598e-04;1.256350448946667051e-04;1.253413277426660463e-04;1.247421472685044449e-04;1.239837242756101443e-04;1.237406070606332932e-04;1.237077919736849832e-04;1.231105121355011676e-04;1.222949684872944086e-04;1.217763018376968664e-04;1.216139616951328464e-04;1.215600757235499703e-04;1.214895524617638518e-04;1.213129173178994900e-04;1.208840103321007247e-04;1.204674709213071415e-04;1.201460722946760622e-04;1.199344569088791338e-04;1.199104329480116249e-04;1.196246211213600793e-04;1.192575021825710807e-04;1.190023589956944693e-04;1.185209184598144932e-04;1.177025401933912857e-04;1.171836420956693650e-04;1.171081263915851634e-04;1.165534060836900511e-04;1.162047944004532973e-04;1.160586161193690304e-04;1.159085739771870572e-04;1.156651714707625001e-04;1.151931727430227192e-04;1.150052554293012734e-04;1.148308373561382820e-04;1.147710738416202940e-04;1.142103500430211455e-04;1.139645587163518384e-04;1.139435603144089960e-04;1.137180343474529802e-04;1.135492286277501884e-04;1.131278905883126399e-04;1.128963151142965384e-04;1.118917128521258015e-04;1.116746009750845453e-04;1.115458590507624269e-04;1.115150930904854125e-04;1.112847570701758644e-04;1.110092869304743013e-04;1.105527856865689813e-04;1.101061327806358441e-04;1.099789497759190822e-04;1.097965873268512334e-04;1.091161796298213563e-04;1.089198994375932983e-04;1.083919642127910578e-04;1.083326366526624252e-04;1.082650221233487473e-04;1.078605560015482559e-04;1.068581021031772034e-04;1.067691263845396411e-04;1.065113929456905232e-04;1.064473522581220238e-04;1.063428615396719258e-04;1.060722029337850887e-04;1.060270555495549256e-04;1.056441263380203881e-04;1.048168753472594061e-04;1.045837258919787529e-04;1.037983638747090213e-04;1.037379978076693885e-04;1.034426574681287576e-04;1.033989235581881663e-04;1.033447976123081291e-04;1.030939989103417555e-04;1.030661539714070003e-04;1.028603933901353959e-04;1.025918615712022612e-04;1.022708844169718768e-04;1.022314343285278320e-04;1.019194627844152522e-04;1.019018802198463236e-04;1.017744332936953077e-04;1.015223662269688708e-04;1.013298721292467690e-04;1.010964134040612911e-04;1.010357645139159572e-04;1.009110465797500363e-04;1.008796171730193633e-04;1.005648808411047622e-04;1.004954915243554570e-04;1.003977744845963092e-04;1.001343789733310564e-04;9.973764639935768907e-05;9.949487152661977266e-05;9.942843980941733044e-05;9.930204225502768894e-05;9.928721485709618520e-05;9.874140256447130946e-05;9.861184794297121780e-05;9.830744629142163047e-05;9.825317963436311223e-05;9.820514942762942172e-05;9.785441108152396626e-05;9.774403607748873880e-05;9.730417035720944751e-05;9.699869676909512073e-05;9.680318304320032212e-05;9.673206732452173894e-05;9.659403596895447619e-05;9.650515411010790641e-05;9.633118459873313288e-05;9.623774647210241325e-05;9.622204114560721348e-05;9.603050226248519721e-05;9.597773625750084109e-05;9.593604058614736913e-05;9.576910281641642952e-05;9.567403300818421808e-05;9.564813201255703047e-05;9.555864456945744223e-05;9.545822670711584176e-05;9.512926054386061897e-05;9.426213504433900593e-05;9.410816996746751016e-05;9.410061260932021596e-05;9.385932963612689034e-05;9.371595429949221821e-05;9.344407174238570887e-05;9.340928628590204814e-05;9.287070915772196273e-05;9.273635426800954187e-05;9.250869703877534814e-05;9.236763379365800974e-05;9.232689534205427756e-05;9.221830733037625317e-05;9.218966684030031227e-05;9.206451370545692102e-05;9.180479674242788299e-05;9.148291153725815299e-05;9.145430028433465183e-05;9.062523306792343437e-05;9.048836859517329586e-05;9.015420414074161470e-05;9.008213797034965908e-05;8.970429265037385789e-05;8.966082488538912613e-05;8.950348325276388242e-05;8.941477559444420018e-05;8.911938719383442030e-05;8.897343018275366674e-05;8.876600781381035945e-05;8.856085064789614948e-05;8.822648063325535508e-05;8.815697516485912846e-05;8.756631169658597627e-05;8.749306842052144309e-05;8.748059517316397705e-05;8.741310091654512450e-05;8.711429526853246331e-05;8.680495988301538900e-05;8.660414342671737462e-05;8.658207927338530631e-05;8.610050573202471821e-05;8.598825754060034077e-05;8.562178428035780581e-05;8.549757964556197506e-05;8.532798992361691974e-05;8.525339358625766612e-05;8.524358613599462256e-05;8.462772582890448173e-05;8.414866586746776666e-05;8.409649112149341081e-05;8.326284892160873972e-05;8.315179972066916668e-05;8.289154153745569627e-05;8.249281360967322728e-05;8.235201846570719441e-05;8.207002598280034860e-05;8.174368386709315556e-05;8.170998735110881735e-05;8.143560307832212620e-05;8.133387723841370746e-05;8.115621696087476939e-05;8.105005124617786555e-05;8.095986550757963652e-05;8.029574353916361863e-05;8.026579597585460982e-05;8.013573825751251357e-05;7.982202072138964706e-05;7.976435978672596937e-05;7.973977210280537326e-05;7.941601946777977804e-05;7.881534164916965870e-05;7.878802629369014441e-05;7.851224391843479014e-05;7.845159270417330984e-05;7.736151665528731222e-05;7.734279869387087974e-05;7.727883990718313818e-05;7.711889754916632662e-05;7.677909913983398799e-05;7.674959346028675192e-05;7.649137048632747215e-05;7.636021902150681685e-05;7.614945490130448351e-05;7.603119653773517399e-05;7.496771665254278586e-05;7.474739833841855961e-05;7.450956226875751483e-05;7.425760039449980012e-05;7.416747054699699315e-05;7.339494690571893732e-05;7.320285013469248229e-05;7.320069476821420955e-05;7.296263527958776187e-05;7.035232472261220948e-05;7.027335077380214492e-05;7.019960118257843353e-05;6.819646534403076053e-05;6.729495460645999749e-05;6.727161379155574886e-05;6.598330429256012478e-05;6.597260771465274123e-05;6.395977770874026406e-05;6.393164920186703698e-05;6.364850515612108695e-05;6.320371949746255629e-05;9.824289840879363300e-01;7.311651100375346490e-02;7.220821804758704998e-02;5.870642546045955895e-02;5.642509401638866329e-02;4.605360075509237761e-02;4.374889481127185870e-02;4.311509540410003727e-02;4.245898735646629757e-02;3.857603375741338464e-02;3.797319285773166631e-02;3.650061743537990483e-02;3.584344761891716802e-02;2.731167984447502306e-02;2.672728959074907942e-02;2.291634580284165890e-02;2.228574617137761213e-02;2.031370068941736745e-02;1.741916988726945753e-02;1.716935432175706322e-02;1.347674839185334511e-02;1.270065311227832477e-02;1.224562985813041315e-02;8.575406668870895130e-03;7.566562291244921176e-03;7.174209265418480565e-03;5.832296719910382010e-03;5.752636675607940460e-03;4.670942106467978507e-03;3.593607142600997815e-03;3.461444366090770264e-03;2.435571493364826513e-03;2.054015857975983409e-03;1.958053500412597608e-03;1.579357570465103741e-03;1.180928946738292505e-03;1.177881272604834086e-03;1.078443995908131029e-03;8.709804793126694556e-04;8.698231406055571824e-04;8.005531539717064419e-04;7.985540221485274088e-04;7.917646397628078656e-04;7.906357858824637416e-04;7.841302453035261513e-04;7.768038802940322850e-04;7.734337613780017896e-04;7.709795907613648273e-04;7.685358148321011929e-04;7.452693919187985310e-04;7.441561717779641896e-04;7.380443895235418768e-04;7.376633946264233915e-04;7.310283345952729240e-04;7.258723250221600296e-04;7.252004336061955003e-04;7.210825917226055442e-04;7.127449889421585971e-04;7.125433160466698983e-04;7.094844948387294802e-04;7.070241155577164979e-04;7.055615630017705864e-04;7.020980813322787607e-04;7.013093452397401199e-04;7.001280502108742521e-04;6.992936760235754718e-04;6.937729804026920247e-04;6.929715213080286625e-04;6.925587245193193416e-04;6.915734934881141022e-04;6.908588194134344896e-04;6.896024183589544556e-04;6.859250523666210117e-04;6.846356709071369818e-04;6.824609090535044232e-04;6.816005589053757358e-04;6.806118888140890799e-04;6.803742272364311436e-04;6.792831568356728477e-04;6.777782341668854007e-04;6.755901689967159281e-04;6.689579715308639762e-04;6.679549796258759786e-04;6.676449921314408110e-04;6.573530423316793466e-04;6.560914336041315806e-04;6.555868542331505728e-04;6.516801438861795229e-04;6.460647369158874827e-04;6.450298582822126424e-04;6.444009105378059035e-04;6.436183636555476133e-04;6.425949837706104598e-04;6.416671685168464810e-04;6.408472588534287620e-04;6.401111179194975825e-04;6.391952549773589507e-04;6.323511631842866848e-04;6.318998116182603401e-04;6.309836044555996136e-04;6.293296824346927181e-04;6.282085649856142826e-04;6.275148903426399152e-04;6.230350624489049615e-04;6.211820343221532634e-04;6.188294876300363869e-04;6.185989455304436975e-04;6.158537181851151928e-04;6.142994150981664599e-04;6.131380532429358274e-04;6.114942005291749407e-04;6.100321861308108948e-04;6.095775279629497617e-04;6.085093150227813231e-04;6.068213918109088140e-04;6.063482082125290756e-04;6.054265536034162017e-04;6.049045429176024436e-04;6.019939301241623636e-04;5.988232553388860577e-04;5.978350714113831116e-04;5.971808686825948219e-04;5.950578635731165180e-04;5.911953774150588209e-04;5.899523032768534247e-04;5.893958124629616446e-04;5.881057336237752349e-04;5.873145020730489562e-04;5.870039416317055555e-04;5.815157220466723488e-04;5.809601784186443820e-04;5.790559934139211974e-04;5.759301078459203417e-04;5.748860383291231170e-04;5.720009418932051667e-04;5.704570838949722580e-04;5.704348248114182555e-04;5.687728122748399954e-04;5.673335237285950490e-04;5.670790431587164650e-04;5.610298493886049136e-04;5.607782586288105912e-04;5.587414872367467943e-04;5.582633172480663906e-04;5.569241653968664326e-04;5.558073737700949118e-04;5.557214284647627074e-04;5.532801514177176265e-04;5.527120040783839146e-04;5.516969193713588395e-04;5.514969135593144126e-04;5.501911700641145967e-04;5.496518509509529986e-04;5.489706427479131316e-04;5.487364267131488371e-04;5.469884673496075694e-04;5.464746406459973244e-04;5.455390790550187661e-04;5.453447179099799600e-04;5.447258354077663201e-04;5.441506401534241654e-04;5.408792112873393731e-04;5.402320857476751014e-04;5.397689510196704982e-04;5.394739913411933287e-04;5.382340291680254817e-04;5.375203566786079714e-04;5.356674025251898083e-04;5.332442385276019593e-04;5.326338274576602463e-04;5.295831598286338633e-04;5.294256577865415246e-04;5.280064777966601191e-04;5.279193197892765059e-04;5.277261764631750816e-04;5.259646627092870452e-04;5.254673186480263158e-04;5.249295527654615923e-04;5.248931964757340288e-04;5.245198074968311034e-04;5.244072993506467646e-04;5.230424862589537136e-04;5.223523537934002996e-04;5.196287208515440979e-04;5.177212799307646159e-04;5.176363615550291092e-04;5.168205263179391842e-04;5.160738294097510885e-04;5.159392917648394829e-04;5.154765030266546819e-04;5.153895817365778493e-04;5.150853077828870460e-04;5.148424503873993063e-04;5.146987932504750287e-04;5.140963065302543234e-04;5.138673606082695819e-04;5.126442487317999473e-04;5.124387646248379892e-04;5.112987084151616925e-04;5.109855079855938438e-04;5.105222982713097934e-04;5.098513786541196370e-04;5.087795533995183783e-04;5.079860905173125968e-04;5.076743269868795811e-04;5.072706285454941762e-04;5.063255258543669559e-04;5.056805008087602357e-04;5.036565771492632808e-04;5.029094642458517821e-04;5.023367076170472427e-04;5.007349640644986628e-04;4.994334488385690409e-04;4.989748176171669063e-04;4.987516760778622823e-04;4.982068910238213015e-04;4.963806951471854073e-04;4.946617912504011096e-04;4.942066796858159486e-04;4.933297567518260584e-04;4.930413670128383583e-04;4.917362552122868467e-04;4.896934784506490291e-04;4.891903678236366989e-04;4.886860910402904355e-04;4.886361518704756971e-04;4.874683135359851138e-04;4.867617623013662876e-04;4.866665637395048579e-04;4.855990017928744126e-04;4.851599272280140767e-04;4.841236475702322324e-04;4.837315589160948778e-04;4.824148409727835644e-04;4.823975412170786637e-04;4.796662695507735862e-04;4.792819757764663221e-04;4.779463770978865890e-04;4.777736739349421622e-04;4.771844376815924838e-04;4.763693215377524568e-04;4.760833809735778009e-04;4.749191049124033880e-04;4.742789938699887645e-04;4.730238786201071584e-04;4.727198129193838517e-04;4.721209065370534047e-04;4.716994010350226930e-04;4.714692901596380923e-04;4.705665028456296173e-04;4.692912111517105267e-04;4.657078473005607055e-04;4.651268703613493493e-04;4.646682539341860738e-04;4.629763975497071639e-04;4.617364119688813977e-04;4.608972339847559299e-04;4.596550866698914271e-04;4.584587816300022254e-04;4.584107529684914553e-04;4.576735555334865836e-04;4.565905339113000903e-04;4.558318419625815980e-04;4.554315564030501093e-04;4.537909682006033263e-04;4.533380530197967935e-04;4.522798246060933530e-04;4.522359300209562931e-04;4.509231561907320524e-04;4.503819217235004451e-04;4.501830892289014987e-04;4.486428396514559672e-04;4.483699174191972539e-04;4.479369725658079605e-04;4.463258563559812102e-04;4.460765376427214702e-04;4.445217489269163817e-04;4.438967824064398685e-04;4.392897800257993652e-04;4.384559167228487572e-04;4.380416018175573392e-04;4.375483385028890279e-04;4.373679591014316588e-04;4.370264980795743564e-04;4.338508237847179595e-04;4.324686031330833330e-04;4.313119554652940463e-04;4.298274155571177725e-04;4.294496294746869350e-04;4.283453473942183784e-04;4.277353140697735486e-04;4.267292757458746879e-04;4.257634314680066776e-04;4.252027657328362009e-04;4.247098126695581692e-04;4.244822538346044918e-04;4.236591432585666344e-04;4.215263798691221359e-04;4.203914325992692260e-04;4.185208435210058904e-04;4.177457589431705898e-04;4.164865961401565905e-04;4.154150304810166699e-04;4.151988290043296791e-04;4.128572062776329765e-04;4.121393366153895937e-04;4.115084506711000930e-04;4.112099020841727677e-04;4.106501447425519083e-04;4.091339721347463467e-04;4.073700320560048210e-04;4.069778844749424407e-04;4.064681114633941772e-04;4.053771534868419479e-04;4.048484954116072696e-04;4.028986088607621591e-04;4.026892730717320217e-04;4.022714673822597913e-04;4.013853566888388722e-04;4.007879251504558064e-04;4.003194255461769643e-04;3.973313468338821519e-04;3.959809201232537259e-04;3.949573046582782938e-04;3.938778300967572246e-04;3.930019526597047850e-04;3.925379199594042682e-04;3.907722365484137829e-04;3.907060413210813182e-04;3.895546280689538509e-04;3.892393321322528982e-04;3.871077896260200933e-04;3.866606240475292970e-04;3.846734285989155083e-04;3.841250337097553910e-04;3.827282524622085676e-04;3.806960551567052957e-04;3.776312155736776324e-04;3.767210021014041205e-04;3.719338670179719213e-04;3.707073790332654538e-04;3.705531210890888709e-04;3.702170527299021466e-04;3.693901116822303436e-04;3.673217049478440114e-04;3.671175029305613754e-04;3.664926619612630943e-04;3.662869164382415469e-04;3.634333506061199030e-04;3.612286776013025466e-04;3.605815524472225802e-04;3.581104523851604449e-04;3.580165434270943486e-04;3.573106558617108672e-04;3.567670964644912017e-04;3.558114707117047341e-04;3.556139229764478864e-04;3.548078011620662197e-04;3.542270185566470317e-04;3.503692954126741465e-04;3.501106001007808018e-04;3.493197543862349114e-04;3.480173506644497331e-04;3.477544016149368682e-04;3.434150011497445970e-04;3.423540752586855230e-04;3.419776787752161376e-04;3.410549391075268547e-04;3.407316582913762042e-04;3.400631487008557601e-04;3.338214089943543220e-04;3.336970042276351557e-04;3.315451027090496371e-04;3.309884248650520988e-04;3.281517872781803064e-04;3.252413809430598508e-04;3.240289246890524556e-04;3.238064062429757786e-04;3.226798299063134081e-04;3.214926101885359744e-04;3.209917953576586032e-04;3.208744332809591979e-04;3.052051197282186208e-04;3.050046291769451315e-04;2.981920868609329095e-04;2.980827943582823008e-04;2.900343632335244167e-04;2.886912877190621080e-04;2.883408440163412944e-04;2.882011928894979676e-04;2.870819718527225497e-04;2.870775906937050523e-04;2.862969654359604084e-04;2.851189027540174852e-04;2.744827525449295758e-04;2.731927815508683032e-04;2.649923406219125387e-04;2.648181270576321000e-04;2.364244856707589789e-04;2.360066962939069484e-04
9.828192309288628081e-01;9.090814860379040074e-02;8.527894518939777013e-02;6.374850998823768100e-02;6.030188965915199428e-02;4.088482395267296204e-02;4.059092562589262237e-02;3.512089321941109371e-02;3.425047689405490148e-02;2.588241510848541052e-02;2.568400987106599781e-02;2.029711161977851286e-02;1.955958450148270397e-02;1.951125201750099000e-02;1.860862768314684376e-02;1.683002743777397767e-02;1.630813178786370832e-02;1.461037090737174297e-02;1.358420534856509543e-02;1.353948931852801130e-02;1.263913689741729199e-02;1.186061466999727143e-02;1.094169186270931189e-02;8.597049646780905580e-03;8.525011595238505061e-03;8.464242934917411143e-03;7.816450017770345052e-03;7.462117527252240014e-03;5.953565957541352704e-03;5.852534728407809278e-03;5.648294157442519843e-03;5.173274748140477795e-03;5.049278212762259993e-03;4.663518914468053542e-03;4.053166963868947738e-03;3.647904004354815110e-03;3.527040912412981056e-03;3.022714752594060118e-03;2.845209087753410894e-03;2.747403977245866085e-03;2.668513733438859087e-03;2.645897206124674106e-03;2.642067007969672345e-03;2.634308159608476745e-03;2.512896622233452403e-03;2.505208636124570207e-03;2.423666143290830691e-03;2.415427930823521065e-03;2.216549627156213197e-03;1.977453860655805414e-03;1.953879635398541887e-03;1.932624447606328061e-03;1.853351770439377487e-03;1.831947118012502984e-03;1.817513187865382740e-03;1.806499577233880308e-03;1.750085260454053689e-03;1.712033258695381697e-03;1.698897132936782236e-03;1.678271677725742990e-03;1.521921328037700817e-03;1.514538697206879638e-03;1.479976591441686026e-03;1.371465733177454393e-03;1.361545756945766513e-03;1.341633358188689925e-03;1.230448704472589727e-03;1.055687477695993253e-03;1.034182297846689396e-03;1.028222961738670116e-03;1.005478866428044949e-03;9.268084105167484097e-04;8.458385818634841678e-04;8.037471405855950869e-04;7.773823935475510658e-04;7.040315841258477708e-04;5.976757052346165673e-04;5.681710011118239765e-04;5.593772181365045271e-04;5.409624519038066679e-04;5.201884624175296019e-04;4.671889124565775805e-04;4.547289664770171784e-04;4.486837833463120924e-04;4.437594030618082180e-04;4.362176866860683331e-04;4.300289522018797871e-04;4.266957189927231536e-04;4.255413086732057399e-04;4.145177082397777943e-04;4.001818108023343936e-04;3.966365049356568328e-04;3.944134059816224312e-04;3.877018995388736801e-04;3.871189975009954750e-04;3.763848513001153686e-04;3.618218367879273787e-04;3.596644736672712493e-04;3.263800008689278433e-04;3.186565631955016347e-04;3.071771662432583663e-04;3.041510350758556947e-04;2.983612303230615925e-04;2.877673570729973886e-04;2.700987375926093602e-04;2.612985662124861627e-04;2.561422791461052668e-04;2.540894723681475669e-04;2.511322590859131989e-04;2.279872044240721228e-04;2.276031260452709233e-04;2.259830870554736370e-04;2.253249390818061590e-04;2.218027195675881063e-04;2.182647381487048076e-04;2.166274776137823432e-04;2.138248692587367864e-04;2.099739021192423890e-04;2.024863632760068094e-04;2.007264565665185080e-04;2.001559169277735198e-04;1.980712882086023234e-04;1.957678256925799397e-04;1.941652365691545605e-04;1.920269846214484283e-04;1.892497486000487613e-04;1.820575666440381237e-04;1.782689409709602298e-04;1.754875820708826995e-04;1.748754840252227430e-04;1.733148380831368938e-04;1.724104500432871261e-04;1.699955242152109951e-04;1.640994073691289781e-04;1.640560026640026339e-04;1.580909373169301800e-04;1.568870875573672309e-04;1.554700960987051659e-04;1.518676646812405773e-04;1.514051932228046367e-04;1.495103986107510928e-04;1.470694972684900002e-04;1.463324632689077403e-04;1.454510852525757513e-04;1.445275551232281543e-04;1.422381856686914564e-04;1.410917815221036866e-04;1.405974915996287711e-04;1.396555229638656026e-04;1.393691542311439424e-04;1.375678901806912915e-04;1.372677225006659562e-04;1.369818329355977139e-04;1.356006479192715280e-04;1.352599982047954198e-04;1.352095063998030443e-04;1.346552568559532996e-04;1.341718385336253077e-04;1.339049474870207914e-04;1.332766232882709467e-04;1.310567683274073663e-04;1.310247821044122237e-04;1.304673561186319483e-04;1.298629761900731779e-04;1.260874906667444454e-04;1.258056527647194401e-04;1.257563295373976208e-04;1.251695829851716738e-04;1.250432158528536053e-04;1.245024807942786253e-04;1.244908451127398757e-04;1.243442255424562128e-04;1.243070565011324005e-04;1.240030983854470859e-04;1.238369076892773901e-04;1.229511240410624377e-04;1.226244582170855284e-04;1.203104847625019143e-04;1.202167571449845016e-04;1.201391754204195195e-04;1.195200497835991800e-04;1.191109131790685661e-04;1.188667437891268705e-04;1.187569318920386735e-04;1.186652682879891721e-04;1.178166300695013995e-04;1.177555504809245699e-04;1.171863844699979788e-04;1.165418723556064335e-04;1.159823224052835297e-04;1.158611211648824155e-04;1.154876150077161547e-04;1.146115046862293356e-04;1.143212594216957327e-04;1.138272566576259718e-04;1.135087366845077735e-04;1.132835004562879485e-04;1.132291679153223356e-04;1.131172636867816599e-04;1.127223536738469187e-04;1.126000186969480283e-04;1.124687449764101181e-04;1.121094943858007645e-04;1.120134116746454225e-04;1.118491282941937154e-04;1.113286182333120668e-04;1.108512233941188769e-04;1.106471771428452054e-04;1.101272161887394612e-04;1.100839430739186366e-04;1.097768538338656039e-04;1.092610448533208015e-04;1.092344395709231634e-04;1.090500571567672557e-04;1.089730756783095951e-04;1.087927346733455269e-04;1.079690724715463650e-04;1.077882342929257505e-04;1.072772169640578949e-04;1.070826363453454517e-04;1.070016972287055306e-04;1.065171356513033786e-04;1.064845697084856608e-04;1.061354892697775513e-04;1.054399890436764171e-04;1.052461860870197236e-04;1.046496570748245300e-04;1.043759235941945892e-04;1.042252438683941598e-04;1.038849731953942092e-04;1.038657983473155114e-04;1.036275083913262726e-04;1.033528175843721883e-04;1.030148774249796102e-04;1.029275978543449545e-04;1.025862156305452493e-04;1.025190947900883614e-04;1.024760253772854368e-04;1.023175453507834559e-04;1.019980176461893819e-04;1.019816945680929936e-04;1.016405632608673057e-04;1.015421468633754219e-04;1.011200031812269773e-04;1.010767670577331328e-04;1.005065117774851666e-04;1.001217425668189599e-04;1.000431713448650856e-04;9.992773587237736344e-05;9.931650712019938544e-05;9.910867692836300067e-05;9.906278570222564665e-05;9.822588718591884825e-05;9.817766619238111865e-05;9.798391267300889150e-05;9.778338985874024316e-05;9.771960291394895409e-05;9.745316329954514085e-05;9.719192411192837625e-05;9.715944791028479927e-05;9.698242328822432375e-05;9.688221338869942259e-05;9.642823171351060801e-05;9.609933768351888598e-05;9.607353823260059199e-05;9.575998704656484592e-05;9.522209268094430348e-05;9.506374602254653481e-05;9.492796799640973459e-05;9.483190227951997947e-05;9.476041088609171909e-05;9.436705272291723171e-05;9.418791696230134831e-05;9.414103361773960615e-05;9.407112814680566794e-05;9.394806211283228176e-05;9.341841912388133178e-05;9.331164006145597296e-05;9.310161286105108095e-05;9.270234617725231778e-05;9.258593671076011404e-05;9.247340721469114646e-05;9.219672698257683544e-05;9.217293920411626464e-05;9.213330356397181830e-05;9.211804488042197128e-05;9.192285902753469815e-05;9.178642019799000153e-05;9.153257911384713125e-05;9.152677612552434028e-05;9.105510566542726939e-05;9.096052284036286548e-05;9.083497898201980405e-05;9.081197526003609484e-05;9.060846624135540292e-05;9.059003414273383164e-05;9.050074286754763184e-05;9.010179790823806773e-05;9.001022141690193069e-05;8.999221510510538747e-05;8.978693216927464212e-05;8.965743255874302788e-05;8.956362778492618561e-05;8.931538706502116943e-05;8.919327995358335745e-05;8.843490368930969074e-05;8.838568974649058335e-05;8.823299985798269563e-05;8.796655217394964835e-05;8.794503079672875946e-05;8.738175751134963625e-05;8.732812262187154752e-05;8.693849772208023892e-05;8.692858461007431749e-05;8.673716110226562187e-05;8.661758705428619252e-05;8.608426516303440399e-05;8.586908787087604920e-05;8.575694195486004254e-05;8.559565431169690165e-05;8.553889502358293703e-05;8.545690639760774297e-05;8.475011079574650593e-05;8.451827511401948973e-05;8.448161784738710954e-05;8.437249397233207121e-05;8.416411724708855967e-05;8.398342551278216699e-05;8.393159164467162950e-05;8.383816070581969729e-05;8.317874299532965817e-05;8.298316397358444080e-05;8.293068662283025524e-05;8.275153160673375257e-05;8.259796420975923142e-05;8.244257799541233628e-05;8.196032351738935897e-05;8.174816715102826569e-05;8.138193172643145331e-05;8.077281778151671745e-05;8.072172054273414989e-05;8.062588651875900463e-05;8.047794436472966752e-05;8.041014095663893664e-05;8.001783635641098293e-05;7.999713404335120708e-05;7.991440376792845559e-05;7.982508260798364759e-05;7.965646609432914561e-05;7.933091966126130348e-05;7.931415751854626825e-05;7.922773071871193058e-05;7.910939722055568735e-05;7.907425062388306533e-05;7.883324923830951122e-05;7.879852806737422486e-05;7.844812027786502481e-05;7.838579635957176764e-05;7.802403576668354363e-05;7.754496801998852357e-05;7.722296733012999224e-05;7.702481495259421807e-05;7.700936397816022768e-05;7.647688283310577777e-05;7.612653383495486114e-05;7.560234246988622954e-05;7.511549196073248852e-05;7.509186387252995076e-05;7.462971450000036359e-05;7.442115345586459041e-05;7.413086723906080742e-05;7.411760634136236833e-05;7.363810063389028820e-05;7.357737482162809831e-05;7.296117063651729416e-05;7.293438533295803637e-05;7.285518500560817022e-05;7.278381056856179920e-05;7.255443283870184829e-05;7.254554644244975157e-05;7.213672403792405945e-05;7.200176893947371666e-05;7.187921763319813230e-05;7.178266527104894116e-05;7.135337544402759857e-05;7.129348611691328048e-05;7.108984213371857721e-05;7.101696727186557613e-05;7.050694218727067257e-05;7.033656135426515381e-05;7.029390916182617238e-05;6.975172329895251439e-05;6.972527806994845633e-05;6.966283031014589965e-05;6.634658032702137368e-05;6.604696404193315335e-05;6.434455752058904088e-05;6.430936150573986383e-05;6.302918782845103051e-05;6.288242719503966320e-05;9.842291851069303599e-01;6.754190241682388185e-02;6.683773398422916678e-02;5.774480166996243113e-02;5.463542215703212634e-02;4.575646931763484304e-02;4.351925454562444173e-02;4.251874480839831077e-02;4.198373337553814449e-02;3.750482992338553118e-02;3.693059894205886345e-02;3.403085968221800095e-02;3.376348876499762897e-02;2.393189314356613043e-02;2.325872925705793626e-02;2.038236391197602651e-02;1.772863001864781463e-02;1.710439357369815394e-02;1.511652024721893590e-02;1.432903472277535610e-02;1.238061578055142317e-02;1.135634704441108866e-02;9.226277503874179969e-03;7.730313977442797649e-03;7.277472418896064645e-03;6.151183138640458660e-03;5.465302934087760273e-03;5.319438063412913059e-03;4.468058639884243260e-03;3.922724184233819869e-03;3.670584603124609456e-03;2.770829872264053348e-03;2.016304048915017449e-03;1.819078536549262499e-03;1.598984950669585280e-03;1.238983131571548286e-03;1.235431790501950299e-03;1.080544873175643458e-03;9.064548894400750907e-04;8.955503115506131644e-04;8.934553831169678682e-04;8.839511156671434056e-04;8.309204851078364623e-04;8.303170977333799952e-04;8.281834274623138320e-04;8.275702139281722889e-04;8.228138221783675267e-04;8.139209611114816200e-04;8.122813619353321662e-04;7.946139847233333687e-04;7.770596665202151882e-04;7.767761473835601812e-04;7.737136447782384883e-04;7.622815463010328011e-04;7.616604930675723896e-04;7.597315897658917568e-04;7.585654642307403279e-04;7.540114591812324945e-04;7.537296224605904158e-04;7.487341498511058393e-04;7.373698350167675166e-04;7.369584186206389271e-04;7.274974704319053624e-04;7.252369518196413126e-04;7.090546020810601160e-04;7.088599877071188361e-04;7.065445651473314156e-04;7.031899225331555590e-04;7.016325098596210962e-04;6.973100958389834812e-04;6.970820342404212807e-04;6.940992734601207550e-04;6.937165068610838493e-04;6.930039181200427527e-04;6.922571348931010797e-04;6.883377156649161293e-04;6.878976622201831261e-04;6.761897624091165251e-04;6.754771096596478555e-04;6.754096522591934585e-04;6.751382961087781624e-04;6.741509014984710217e-04;6.732523942691781213e-04;6.710545822443860896e-04;6.702985273810999978e-04;6.696454080160814957e-04;6.671991512665000242e-04;6.663535540924780173e-04;6.598909386234990196e-04;6.596631683376983843e-04;6.573241846836230329e-04;6.540212156773364148e-04;6.518056231107007166e-04;6.504831290755484123e-04;6.503545383805539115e-04;6.490461680396902551e-04;6.486621664875066601e-04;6.432645702285284036e-04;6.358387404167123230e-04;6.351931505821416333e-04;6.346988844040755279e-04;6.326196595728387920e-04;6.312422880223252401e-04;6.305455614883909805e-04;6.289322710328442952e-04;6.279393903204718999e-04;6.276902549398628156e-04;6.274183231968146097e-04;6.242144849295292548e-04;6.238834886283325552e-04;6.226303247499324510e-04;6.202173011445593232e-04;6.184251989933248856e-04;6.174826084751651456e-04;6.170601902987666578e-04;6.146014825382046989e-04;6.138714205514001192e-04;6.086705478148548513e-04;6.062660033083235034e-04;6.038951748696540396e-04;6.031197775146908109e-04;6.011085625398255314e-04;5.971046030053624339e-04;5.967475032392623386e-04;5.962496059512365377e-04;5.962123687523132338e-04;5.959285490927607523e-04;5.934373037922311073e-04;5.927362854962211309e-04;5.923328107799301660e-04;5.900500458683791399e-04;5.879085986426385493e-04;5.872200296280839001e-04;5.865495239274439755e-04;5.862567149449524756e-04;5.830150092116206028e-04;5.829464081253805897e-04;5.825065824097415239e-04;5.820307407616266086e-04;5.797683144428297753e-04;5.788163350414277705e-04;5.784644142904134950e-04;5.780962720700186979e-04;5.774317938638752392e-04;5.759406094879395473e-04;5.726651278026237153e-04;5.721752540059764792e-04;5.703290800975608071e-04;5.688416505173724425e-04;5.679203877607298537e-04;5.664376649167252335e-04;5.663805477312053435e-04;5.644711164738302383e-04;5.636371165654857499e-04;5.631292252758110213e-04;5.604640650704994370e-04;5.603728158110273016e-04;5.599063833825771927e-04;5.589975779974007972e-04;5.581586368934346974e-04;5.581047262102470157e-04;5.580623084035865340e-04;5.575983102497492549e-04;5.567981850283400388e-04;5.557204455847136564e-04;5.545473454561924758e-04;5.539270787287536163e-04;5.515547179185748472e-04;5.504748647336759563e-04;5.494684608183079966e-04;5.488144391664986389e-04;5.486313826229087792e-04;5.479058599112744633e-04;5.464770206665844031e-04;5.461883016824631591e-04;5.447154178883831634e-04;5.434422803794311443e-04;5.431415083891301876e-04;5.418494062455426943e-04;5.414891919184385309e-04;5.400548745523600994e-04;5.391334188925477272e-04;5.384606675657168350e-04;5.381487703911977871e-04;5.365840219583230698e-04;5.334590381724365823e-04;5.307690633095148028e-04;5.298629188950422812e-04;5.288629660727577671e-04;5.285420500650343757e-04;5.282224296382315252e-04;5.279838254488635483e-04;5.251268884992974645e-04;5.225642083759559145e-04;5.212599311363097032e-04;5.203205139083643283e-04;5.197775417799884064e-04;5.177928313218294011e-04;5.175846806848935109e-04;5.169745668170692065e-04;5.161740075358294856e-04;5.152276679497943710e-04;5.148262504146946432e-04;5.144689705850039908e-04;5.141047682304795930e-04;5.138872284057639014e-04;5.123562791473697687e-04;5.116619734028932890e-04;5.105996428748253496e-04;5.087103451161978807e-04;5.084365220551003437e-04;5.082529971511300570e-04;5.070247545876593008e-04;5.052089474142604794e-04;5.048266926415693112e-04;5.044357792524396117e-04;5.036806202938228730e-04;5.030107717087826209e-04;5.023546368950357289e-04;5.014833666655135400e-04;5.000058863714259986e-04;4.991464983490097448e-04;4.985468043853688537e-04;4.975445403825622028e-04;4.971900106494820575e-04;4.966076318175465616e-04;4.956857222380522910e-04;4.949916595013281869e-04;4.934509736950388635e-04;4.928685166330369540e-04;4.926572361945535765e-04;4.904640154035313409e-04;4.897945593436185078e-04;4.892197660371984565e-04;4.869102977436563480e-04;4.863203280377236047e-04;4.823649445213411225e-04;4.810997525561870949e-04;4.804531241591165165e-04;4.802188480364121188e-04;4.790007677869296166e-04;4.785519780516923351e-04;4.784324225066610486e-04;4.759468102189821697e-04;4.756341441080563868e-04;4.746747707593023725e-04;4.737696643000430577e-04;4.722442427994042531e-04;4.710430201259485248e-04;4.694786755453303484e-04;4.684547010098828843e-04;4.677289943947759315e-04;4.672299981941554744e-04;4.669006743027482058e-04;4.660034968662018725e-04;4.631507897506472122e-04;4.626623147256514338e-04;4.623843307470408494e-04;4.611897724770647146e-04;4.605176129846706950e-04;4.598289853355726447e-04;4.594317207761523044e-04;4.593483252855815047e-04;4.586185102422318674e-04;4.585304042463236060e-04;4.583615766805032208e-04;4.579460730273946607e-04;4.563866823675041665e-04;4.559616375362656490e-04;4.544090167284714921e-04;4.535253089683375467e-04;4.521506671097332442e-04;4.504787793934819694e-04;4.498068269419517326e-04;4.495443670367142448e-04;4.487825824106873320e-04;4.480008837307396219e-04;4.475680490473410802e-04;4.437153780551231393e-04;4.426736317532740787e-04;4.395158360171140663e-04;4.389909275548712318e-04;4.388056073720952291e-04;4.386725541317879041e-04;4.361931516264584891e-04;4.354240609935083775e-04;4.316524661287937463e-04;4.314802822199938844e-04;4.301172855690258800e-04;4.297649644903948993e-04;4.290486528396876532e-04;4.278545726613405212e-04;4.277584542502939889e-04;4.273636191886854532e-04;4.267026484988276037e-04;4.258206175615522832e-04;4.250866815609795585e-04;4.247407667162476225e-04;4.240576986597060800e-04;4.236338161434807879e-04;4.227330995619875669e-04;4.223500749157770798e-04;4.215861258991885881e-04;4.213953330145478763e-04;4.194736125740229334e-04;4.193164556072800746e-04;4.185688254363947132e-04;4.175478690008004013e-04;4.172180018528158225e-04;4.153032447670698983e-04;4.151029460851259154e-04;4.145115434479261485e-04;4.125294829584570471e-04;4.116412171887390780e-04;4.105546761548576761e-04;4.092880554644995859e-04;4.052530447734099188e-04;4.046921128179418992e-04;4.044601616211079224e-04;4.014758383310449786e-04;4.009656128726842776e-04;4.000173067854938345e-04;3.995164054444306210e-04;3.981891706909061442e-04;3.966919584022718381e-04;3.959582841800738610e-04;3.931804100326688153e-04;3.927097133727492566e-04;3.920458710252625414e-04;3.916723538293363544e-04;3.914408291642139663e-04;3.905752180993066745e-04;3.892682366604740553e-04;3.890784200984248012e-04;3.880730836098358070e-04;3.876248533303728759e-04;3.854624149980062186e-04;3.846083774142586872e-04;3.832326453672733543e-04;3.826392283261365285e-04;3.823719633545994909e-04;3.795162283174230628e-04;3.756417134834158663e-04;3.752020699439728582e-04;3.737276079164834506e-04;3.734369667331283844e-04;3.723172597488716017e-04;3.707535027593087187e-04;3.680023705505896473e-04;3.673875410296554818e-04;3.572090736450434477e-04;3.565530908093672005e-04;3.535027042367701951e-04;3.534032772645898861e-04;3.518690338665268129e-04;3.512203853943874255e-04;3.483866463110831652e-04;3.480706032718823930e-04;3.477397316536758086e-04;3.461661988062888877e-04;3.459597447115712312e-04;3.445137010757671689e-04;3.428033537958370593e-04;3.424476069994784140e-04;3.375986495697754527e-04;3.364211946354751597e-04;3.335678653726732593e-04;3.332306908736914325e-04;3.322753546504100992e-04;3.310804278902772279e-04;3.286389856642868098e-04;3.283157709234174734e-04;3.265263558943786891e-04;3.262684612847387600e-04;3.228351418461076084e-04;3.213773039777972755e-04;3.203071888446237304e-04;3.201584442386662724e-04;3.168103364252461114e-04;3.164983468814522370e-04;3.137679431180875390e-04;3.127828160863994141e-04;3.057637345438845590e-04;3.046726427693240667e-04;3.032992243101232483e-04;3.028301589817587194e-04;3.008427934889721777e-04;3.004872681584639109e-04;2.984917301154073267e-04;2.972223083948548274e-04;2.967228581061845481e-04;2.965944492201852065e-04;2.960658466273453026e-04;2.958212778881778946e-04;2.944101527183343929e-04;2.932892817801886092e-04;2.864518429787836864e-04;2.858256997560563984e-04;2.680960237058367755e-04;2.678189997602504601e-04
9.814081154272885632e-01;9.557602330408028479e-02;8.911188875903551521e-02;6.701644539962595126e-02;6.201238786673513026e-02;3.807474426788539507e-02;3.764791787165450848e-02;3.609120111957550558e-02;3.566791925930474366e-02;2.787431745183563056e-02;2.757110770033213351e-02;2.209241411267735822e-02;2.043585992888511185e-02;2.035489958000193458e-02;1.889455146750885703e-02;1.824977510978596784e-02;1.778640117795317332e-02;1.687318838237709256e-02;1.600503416579746388e-02;1.516664180934756793e-02;1.498415538332834723e-02;1.354010168943339115e-02;1.252528762751445660e-02;1.061263836817327375e-02;9.555390184714797688e-03;8.480981598751663117e-03;8.033458472960445379e-03;7.696020922096755319e-03;6.787434828673132893e-03;6.046474017480980671e-03;5.873796608906097123e-03;5.814951239179744213e-03;5.375974663774079482e-03;4.832888562058079360e-03;3.922727759297153782e-03;3.359539356684753710e-03;3.342256673888345780e-03;3.030143149678252330e-03;2.886229472928453482e-03;2.861853045894586015e-03;2.743556593040734001e-03;2.687343488947329263e-03;2.505615694284972494e-03;2.457686561349913326e-03;2.412774325813357539e-03;2.178054233826528900e-03;2.063985825037248974e-03;2.057150800013326196e-03;2.037193795787253011e-03;2.017909358817091513e-03;1.997880497358785288e-03;1.975010684816145765e-03;1.809543349891928410e-03;1.801212178276052726e-03;1.766956404243677677e-03;1.720227821281131164e-03;1.680369586191199013e-03;1.644680437327145344e-03;1.590745703039410722e-03;1.587005094053395120e-03;1.552628822518240925e-03;1.530071635705271445e-03;1.459545418313475465e-03;1.438798892173872353e-03;1.434155950214168525e-03;1.373782487132585179e-03;1.319450701402770073e-03;1.204482290306258191e-03;1.167243008695328845e-03;1.146455413126195796e-03;1.073367936141069161e-03;9.449316394759825662e-04;8.076424339300146589e-04;7.613128564525397388e-04;7.586422069474674278e-04;6.548936918062909975e-04;5.839888723144018301e-04;5.838558782848823079e-04;5.500960532785137891e-04;5.491721087322736254e-04;5.253911201258826009e-04;5.015780706381426073e-04;4.906237808516947544e-04;4.544439139949643072e-04;4.460933949970361640e-04;4.429661416257323417e-04;4.304776821319160752e-04;4.239325286232343984e-04;4.233331871170954394e-04;4.102807211140427823e-04;4.063959429856852388e-04;4.049507433356568662e-04;3.947554687778930742e-04;3.844458684470979494e-04;3.798487852482706085e-04;3.758995428321832430e-04;3.722147592141688524e-04;3.670309488630430026e-04;3.614092871192533759e-04;3.498824921579971178e-04;3.260634988161728001e-04;3.162146272473667229e-04;3.036837653604037017e-04;2.936593138083872499e-04;2.827733317209849885e-04;2.786873059757797710e-04;2.726365003524613235e-04;2.700878960229886254e-04;2.672251453079963249e-04;2.565550737640326416e-04;2.537726826009748036e-04;2.480827404335308409e-04;2.428683056923370913e-04;2.385320157721949777e-04;2.298372801378229750e-04;2.295589534231936527e-04;2.268014286049486506e-04;2.216431419803888093e-04;2.197789239320721078e-04;2.154509883163657096e-04;2.150633799262087497e-04;2.117057154119169292e-04;2.098713908957738222e-04;2.087163853937108802e-04;2.085741067365654673e-04;2.042419839346272948e-04;2.027587502659763930e-04;2.002381397772597972e-04;1.989233655831128473e-04;1.980980532385599496e-04;1.959664101716195701e-04;1.935269950638238091e-04;1.929638077160400911e-04;1.899742068394309530e-04;1.850611269795374896e-04;1.839243963166106830e-04;1.801305880671243186e-04;1.784787035813775204e-04;1.781676510543022567e-04;1.740543359248653010e-04;1.725968495663007850e-04;1.713001985267485782e-04;1.681550644611042792e-04;1.679640418484068130e-04;1.648746510659539373e-04;1.615797084423591036e-04;1.605736531469259575e-04;1.600499884485741286e-04;1.594740078106890240e-04;1.578664157819351631e-04;1.573293610029808157e-04;1.567342681992778437e-04;1.516161108097791380e-04;1.503672089369422025e-04;1.500246416372117992e-04;1.485826053331106174e-04;1.481823697188770534e-04;1.479291571137869999e-04;1.472902101260463719e-04;1.466186627895475813e-04;1.465759173005646611e-04;1.456967522928721576e-04;1.445500038044588537e-04;1.419135067594266256e-04;1.382895227005262982e-04;1.377665873063598715e-04;1.377444981506962586e-04;1.375891215052932944e-04;1.372539849816664019e-04;1.365816862936366518e-04;1.361788002964704877e-04;1.350302294656022402e-04;1.342934599440598451e-04;1.340668925020352896e-04;1.334887707838296590e-04;1.328205211065174127e-04;1.324403972252288916e-04;1.321951221299004487e-04;1.310867032106182741e-04;1.309639378903521868e-04;1.303513586747370322e-04;1.303205626786936903e-04;1.300799361030936536e-04;1.300715852560001252e-04;1.297696636710376247e-04;1.296923526070403721e-04;1.296047555439797984e-04;1.289894201749014989e-04;1.286986123357114129e-04;1.281608282329719714e-04;1.271037957691450700e-04;1.270002995163938074e-04;1.264236548379822525e-04;1.255613184324689505e-04;1.255216474911047795e-04;1.234889790947255365e-04;1.214897191856729173e-04;1.204313897622230791e-04;1.194392154184049221e-04;1.193251682082289349e-04;1.183699897808994302e-04;1.182739156420080536e-04;1.178302197283008908e-04;1.174880416498344304e-04;1.171341503027344990e-04;1.170184687381637317e-04;1.168190551833919890e-04;1.163072462663395653e-04;1.145371283225756739e-04;1.135008167705290667e-04;1.131813284191458276e-04;1.129249760164067790e-04;1.127880774385401909e-04;1.126709223947379321e-04;1.118691326611711607e-04;1.115782694320091958e-04;1.114184410397898631e-04;1.108610289893024488e-04;1.096537098011580644e-04;1.095588969806753202e-04;1.091948851246007414e-04;1.089362892767673370e-04;1.085600703629643334e-04;1.081278502740580744e-04;1.080964499563993593e-04;1.076285698888006671e-04;1.070303165780360808e-04;1.060350030369650043e-04;1.056743939547112246e-04;1.052078474514729395e-04;1.051938595213652085e-04;1.048924456006096586e-04;1.048120245050532587e-04;1.042013839611960496e-04;1.039401958266501812e-04;1.035269894938814012e-04;1.033897313927273836e-04;1.033767687384886449e-04;1.033378616874606733e-04;1.029331807340467592e-04;1.026717285454182551e-04;1.025215930605605843e-04;1.024783900581372148e-04;1.021333590766615316e-04;1.020588913801516884e-04;1.016334184519946066e-04;1.016255204133755506e-04;1.014144493423685861e-04;1.012329094497119999e-04;1.011961078446919286e-04;1.010736200781871741e-04;1.001808621809295894e-04;1.001329105108309799e-04;9.946512234874381789e-05;9.903163262347172290e-05;9.890432949165376937e-05;9.876241235458144369e-05;9.866965421556874913e-05;9.816165338060464998e-05;9.812046968683433646e-05;9.784866442720521946e-05;9.783079814375717116e-05;9.763388049803292906e-05;9.739095770862685447e-05;9.715457153006379310e-05;9.684282840837071522e-05;9.604011114870411386e-05;9.595255408370363421e-05;9.576353746469213441e-05;9.531253179290554030e-05;9.520376858546384421e-05;9.519014650458552376e-05;9.515225115628955885e-05;9.484167386753141881e-05;9.481088306981638985e-05;9.460971409608771041e-05;9.443877372846452378e-05;9.371701142272064974e-05;9.367861228968846709e-05;9.255475882862291182e-05;9.248935497767927854e-05;9.238295611809292619e-05;9.233061932885746389e-05;9.200593611864719610e-05;9.160593167919679216e-05;9.153009364518608748e-05;9.129624264252394030e-05;9.123927693621724285e-05;9.095001600905900253e-05;9.075564491386452031e-05;9.028133607145617128e-05;9.019031802757516980e-05;9.002193548373294224e-05;8.999887753272736593e-05;8.949161031048647559e-05;8.916365250233197813e-05;8.891669511811221382e-05;8.883053131579858304e-05;8.850204469253995278e-05;8.825809354442686462e-05;8.788670454590758211e-05;8.776162437211435625e-05;8.753931861483962027e-05;8.716628613650274178e-05;8.706047790448692247e-05;8.703976178971761552e-05;8.697676763044866926e-05;8.672509030813201937e-05;8.656922561240013123e-05;8.646054061000483712e-05;8.604020564974726817e-05;8.601400774827636553e-05;8.541892232031482284e-05;8.483446081715607543e-05;8.459213414513322633e-05;8.447913839080109955e-05;8.441832650949812633e-05;8.427939068694843393e-05;8.410753559212312829e-05;8.396889817849218624e-05;8.375538741673486920e-05;8.371213790903789579e-05;8.332377883311800843e-05;8.303150751769441322e-05;8.299406918407269454e-05;8.286270055645185927e-05;8.277362307913616664e-05;8.257227367494598133e-05;8.238369752118005732e-05;8.214402729693956180e-05;8.204250324427302034e-05;8.183813578662208388e-05;8.132866956193572606e-05;8.104167701629983183e-05;8.089271959169779013e-05;8.080389630755349206e-05;8.074853844087242106e-05;8.045459095689313383e-05;8.041735787761519641e-05;7.992969276722851118e-05;7.950077729456296474e-05;7.922385030897657421e-05;7.914484783778436743e-05;7.911468441182010689e-05;7.906458699946119183e-05;7.902596521547675503e-05;7.853123573835133593e-05;7.848280969703668505e-05;7.840611772673486272e-05;7.829557155283339040e-05;7.824389636079856329e-05;7.819759402725452019e-05;7.812756540413138412e-05;7.807021767222117957e-05;7.789175068506095072e-05;7.771077802580633720e-05;7.735764992170777185e-05;7.718724863853306645e-05;7.715773514767323917e-05;7.700631506375123952e-05;7.681858459411730459e-05;7.647208001644325529e-05;7.640771246379273081e-05;7.614703806756402198e-05;7.612769082990802026e-05;7.608246039818556642e-05;7.573458086514481919e-05;7.561756242973443601e-05;7.533159634897149386e-05;7.523609874633919927e-05;7.520856731298072037e-05;7.500733578458311729e-05;7.448196984504865191e-05;7.417022282478823267e-05;7.368888890931924297e-05;7.354467762134030476e-05;7.309332460698884405e-05;7.289442776912811355e-05;7.261814783199218703e-05;7.222059812673643623e-05;7.209136995043347192e-05;7.208025707267202932e-05;7.157700939339096816e-05;7.073243186658321178e-05;7.070295703193379218e-05;7.062025400496686528e-05;7.010295795661480433e-05;6.999888983733252418e-05;6.869548241133152243e-05;6.865276639260064660e-05;6.777188026020322849e-05;6.774889935711054243e-05;6.669000763464917928e-05;6.659281332288233843e-05;6.625730402544399321e-05;6.585978111069232949e-05;6.489029144528207598e-05;6.469845321811830440e-05;6.432567315070556488e-05;6.422751975415050578e-05;9.854891804352116091e-01;5.976359753978007644e-02;5.932682688270445037e-02;5.331231411480150811e-02;5.005379794640624908e-02;4.692067987317966038e-02;4.580942529400383600e-02;4.290893903639259044e-02;4.158444972353649710e-02;3.621270178643748450e-02;3.539933326027375898e-02;3.296141758282687684e-02;3.282191670682998302e-02;2.435439812821533698e-02;2.431933868582486849e-02;2.075071413075211396e-02;1.833181292139315563e-02;1.801895088325078387e-02;1.688476463825126436e-02;1.584088550114184923e-02;1.460176664303489136e-02;1.269685218046818533e-02;1.121611952141149046e-02;8.325056930033145064e-03;8.182324979792666639e-03;8.093310856579213203e-03;6.145705482814254293e-03;5.415155186017358256e-03;4.962654719578000855e-03;4.066332703589988981e-03;4.054470253531333203e-03;3.698913814916241546e-03;2.441787802468363845e-03;2.051305536959680941e-03;1.644345766357305921e-03;1.267922959847325422e-03;1.232198703661178691e-03;1.166551387823368952e-03;1.129893500868858628e-03;1.056786831739716694e-03;8.917254147484531424e-04;8.890084465892220339e-04;8.789664242159031960e-04;8.591090043275439016e-04;8.585397421971756402e-04;8.541250960566259360e-04;8.398318841080680899e-04;8.381242481354956447e-04;8.124953388245297319e-04;8.049786598897615709e-04;8.048679841532210659e-04;7.832069706270053605e-04;7.799875854011575601e-04;7.790195062748998681e-04;7.771216538047323336e-04;7.755481836731344635e-04;7.617240272210549189e-04;7.539099188120270941e-04;7.535183525626983330e-04;7.440891667934569458e-04;7.348568185653525306e-04;7.325972915246780747e-04;7.257557847388237471e-04;7.252227099353450793e-04;7.215912392240648706e-04;7.210407467914823265e-04;7.190982198313141142e-04;7.188286677905189777e-04;7.137591963581271402e-04;7.114602641205137849e-04;7.059413532151430836e-04;7.052049689422410774e-04;7.034177178345619921e-04;7.013196073023447502e-04;6.956647510032588477e-04;6.954480319920366103e-04;6.944556923874657933e-04;6.934334401361727605e-04;6.917761003203685066e-04;6.913357761503459865e-04;6.892790147859875370e-04;6.888293166317673152e-04;6.880031167688145264e-04;6.865871305253523583e-04;6.859297519113556054e-04;6.844041035168724847e-04;6.842660488779340328e-04;6.837063150138693356e-04;6.790618307948086086e-04;6.782819028790142623e-04;6.779079945980927410e-04;6.728163908975868862e-04;6.722265784742571543e-04;6.684041100767179697e-04;6.678964772751652072e-04;6.623822799225247094e-04;6.608290186519365879e-04;6.488601305787615806e-04;6.459848512582322530e-04;6.405483468999490946e-04;6.385137420857400293e-04;6.378679933344349670e-04;6.361912523453355263e-04;6.345538955559037889e-04;6.332087371586928243e-04;6.329170636679890515e-04;6.305016545932293388e-04;6.294066703375156367e-04;6.268072827392142613e-04;6.251980810483667890e-04;6.155064219907851282e-04;6.152754687397156419e-04;6.137384802857959003e-04;6.128548683533462842e-04;6.124375012402059892e-04;6.120188521689101787e-04;6.119809664211995010e-04;6.113421979700549161e-04;6.107794050847295281e-04;6.096906909146253967e-04;6.079955441744375622e-04;6.067398302372916958e-04;6.066025660943701958e-04;6.043716242041940068e-04;6.032682209348291455e-04;6.017379859573863477e-04;6.002063089130418947e-04;5.992302276664490277e-04;5.983269207525614792e-04;5.971649694742729589e-04;5.924684300740899138e-04;5.902841458671192207e-04;5.884068947680122638e-04;5.879382530456953807e-04;5.875352435709195421e-04;5.864569160299519350e-04;5.861677036825772283e-04;5.861373484030567597e-04;5.841946866609422015e-04;5.834126564842039703e-04;5.832238431219739392e-04;5.817353909477551797e-04;5.812035858690431378e-04;5.792964967281176002e-04;5.787596633651237703e-04;5.780519437764725533e-04;5.778092632081733388e-04;5.772924451726701859e-04;5.769421192487789217e-04;5.745608336972202017e-04;5.744710445205767962e-04;5.734486142139624083e-04;5.722484122904070289e-04;5.711801015341051420e-04;5.684430325611485122e-04;5.679628326457334840e-04;5.655951308059792293e-04;5.642399797389472142e-04;5.636050350735885735e-04;5.628674814822992242e-04;5.616120532685422084e-04;5.598496898467098795e-04;5.588304612652992458e-04;5.580150065438815692e-04;5.567181345531682949e-04;5.566035966023090290e-04;5.553159604673831625e-04;5.547867093196853826e-04;5.535275475055784732e-04;5.528017227601360372e-04;5.525722807214484547e-04;5.519746558108235045e-04;5.509018911243864294e-04;5.492964676220691124e-04;5.475255780290553794e-04;5.466387300774997642e-04;5.449363048484030195e-04;5.448106400719470062e-04;5.445361539164054240e-04;5.439543116738568924e-04;5.430354449071695712e-04;5.426398512916295620e-04;5.417693838422416247e-04;5.389824511140091281e-04;5.369339574956493539e-04;5.361124677195052085e-04;5.337135032991811986e-04;5.333108318492344076e-04;5.296822148018339414e-04;5.287834282181808673e-04;5.283928887704257777e-04;5.282043777801979662e-04;5.273706769197411678e-04;5.261017238920734102e-04;5.250975613511754811e-04;5.241999237900449348e-04;5.232605205366256318e-04;5.228783145477253810e-04;5.222952425884291481e-04;5.214810933691749846e-04;5.205894610697198513e-04;5.173167769021264854e-04;5.169006336769638079e-04;5.153516822069585061e-04;5.149069266594404580e-04;5.137764195004354420e-04;5.137099651157865481e-04;5.134699109134112285e-04;5.133092313068456265e-04;5.129907936192202060e-04;5.126318731327516925e-04;5.120536986882242994e-04;5.101257992127394445e-04;5.083249967681432785e-04;5.063277483251664738e-04;5.059626149892945072e-04;5.044421239865454426e-04;5.042996755162025904e-04;5.034053924384992952e-04;5.025020530456114631e-04;5.013722110218413143e-04;4.986896921428475614e-04;4.983570508808943863e-04;4.978278288155181183e-04;4.977870815025414470e-04;4.969997124300228834e-04;4.967856507474630989e-04;4.958566608150241509e-04;4.953687703357408795e-04;4.933664733534582833e-04;4.930261513160511932e-04;4.915496622131505051e-04;4.856814942785117432e-04;4.853326398777165623e-04;4.847870950532768598e-04;4.841260828904766882e-04;4.822672988519400303e-04;4.818283726027014686e-04;4.811631054113233883e-04;4.800582602810868891e-04;4.793592455642929693e-04;4.785873828451846354e-04;4.774531255723067007e-04;4.771177941850975068e-04;4.766882124879756339e-04;4.763757056274671203e-04;4.757829274389581572e-04;4.753819269039991188e-04;4.747062560794166556e-04;4.727558817977331354e-04;4.713426168891401134e-04;4.700296108379226783e-04;4.697439345445628893e-04;4.690403760820463595e-04;4.685625984316074406e-04;4.653064363269242103e-04;4.648676887091266678e-04;4.640526942485684184e-04;4.638570491482526615e-04;4.619347199202343741e-04;4.607717795282385734e-04;4.603332527368384007e-04;4.598853257038813922e-04;4.580032148216055038e-04;4.579461216043111843e-04;4.572160464755334179e-04;4.571131317838384930e-04;4.568225033731725831e-04;4.557574378132663744e-04;4.553646976384716086e-04;4.550281318822693277e-04;4.549316135092460085e-04;4.535177199901477036e-04;4.518555680736379646e-04;4.516716659816369232e-04;4.512001297019134515e-04;4.495040385544266169e-04;4.490366171087513490e-04;4.482063526242416394e-04;4.473604337917148422e-04;4.472453960029613572e-04;4.455140392226430816e-04;4.453948039689375376e-04;4.450517679480754836e-04;4.443774701720834813e-04;4.434122813460825152e-04;4.420331636400850854e-04;4.412550536209656213e-04;4.402271300039410011e-04;4.378813254756298910e-04;4.373518295397877667e-04;4.356402841420253347e-04;4.355006862443880984e-04;4.345984069373603977e-04;4.341153627063834824e-04;4.333860271311889656e-04;4.319930975352899395e-04;4.313610330959929116e-04;4.297821935696336014e-04;4.290117196251978402e-04;4.287211938106208898e-04;4.272274603303300822e-04;4.263316841521113277e-04;4.260943556001158309e-04;4.255193823833550854e-04;4.251262377552652454e-04;4.235397539826548058e-04;4.229441956250910720e-04;4.226339687140982532e-04;4.219915741633653767e-04;4.218236875294133280e-04;4.209748634613149926e-04;4.208321736187943074e-04;4.179517804752947547e-04;4.169085055316032462e-04;4.144971419966174257e-04;4.141019576599816411e-04;4.123055195047946146e-04;4.121309705949106764e-04;4.113944778178420811e-04;4.109484659044255095e-04;4.096388833048577888e-04;4.090370668782806985e-04;4.087487340597951643e-04;4.049271675758433055e-04;4.047324501304997552e-04;4.006672907321361240e-04;3.992605075617410861e-04;3.979647115900093561e-04;3.958845490739317679e-04;3.948842817817860241e-04;3.928154833635391619e-04;3.918699907486229922e-04;3.891852612175086237e-04;3.889439798303725385e-04;3.877377841447036282e-04;3.867514605327361976e-04;3.841852369587971973e-04;3.815294605910433587e-04;3.805642591205708226e-04;3.796720117491577512e-04;3.792575210820914615e-04;3.780120220505074147e-04;3.768094887266798163e-04;3.752496898923988761e-04;3.741236255015883191e-04;3.727610430004782774e-04;3.693222304691485929e-04;3.670048477721438119e-04;3.661071222324521431e-04;3.647190105360599284e-04;3.632952267854055832e-04;3.616544226838653837e-04;3.595310986893336799e-04;3.594309243443969152e-04;3.580865959019442443e-04;3.578476848990735492e-04;3.559151156860453210e-04;3.541103581147992990e-04;3.516988088814864289e-04;3.514021403258949547e-04;3.506691557869476999e-04;3.484749097704027145e-04;3.480774525608648900e-04;3.477031896873052932e-04;3.452862107655374426e-04;3.449715169671112238e-04;3.405989985846284598e-04;3.400221995265614969e-04;3.375199928727960156e-04;3.358407612370828193e-04;3.352295024973162029e-04;3.344277630759623777e-04;3.342749835159214465e-04;3.336440072109389510e-04;3.320040648726571065e-04;3.291686756035764098e-04;3.288411852741150786e-04;3.262419847247873439e-04;3.253115243940874011e-04;3.183023321798891889e-04;3.180347203268518480e-04;3.174758629419078778e-04;3.168902887066273001e-04;3.110707269364659257e-04;3.088680346570837464e-04;3.062387912363646403e-04;3.058650695334417754e-04;2.979894662382883428e-04;2.971625881758638201e-04;2.940846439989125319e-04;2.935338219812276138e-04;2.930271131247309487e-04;2.928865445666650508e-04;2.739987630016805695e-04;2.737056953483525830e-04;2.625502365215550663e-04;2.620553379677078264e-04;2.500608370640222916e-04;2.496416718566543398e-04
9.783365771338859984e-01;1.002642641898943004e-01;9.391899366260900162e-02;7.656285562132107703e-02;7.269711200416653640e-02;3.434227650591906850e-02;3.431295775777618712e-02;3.392769057670743521e-02;3.334501543449784611e-02;3.260647519789535570e-02;3.215988924993936487e-02;2.522169074446207679e-02;2.474925049695908888e-02;2.410673531566647279e-02;2.320912597005453729e-02;2.243692684058268966e-02;2.204084442182116868e-02;2.028504442977150518e-02;1.944889483325196872e-02;1.802179075310361700e-02;1.554961036804735665e-02;1.522238228846143661e-02;1.472107584354141394e-02;1.323187046968422702e-02;1.181792806942381230e-02;1.019465980895785731e-02;8.059467997918162013e-03;7.052218784259623244e-03;7.044867697827286203e-03;6.933417216807222228e-03;6.584863893883308346e-03;5.676641500614644856e-03;4.814607858150082506e-03;4.371275500621342978e-03;3.928342620689299902e-03;3.614926421327607862e-03;3.496719706985630324e-03;3.299706261722203712e-03;2.952763785013656685e-03;2.741076514871749244e-03;2.697132793722592948e-03;2.668986178074712456e-03;2.569728733755802068e-03;2.545428745423543391e-03;2.524844070271935886e-03;2.524110778062100841e-03;2.464046689863020993e-03;2.437840540923457647e-03;2.418624022870045562e-03;2.375427758798003865e-03;2.371318964974290875e-03;2.184615313988958092e-03;2.115697432956229179e-03;2.108421989067959558e-03;2.058150007296971531e-03;2.056374443286210826e-03;1.918512990902029522e-03;1.863141023978724838e-03;1.827436175704186434e-03;1.740381248589777932e-03;1.731605116656800966e-03;1.685423905881569323e-03;1.658642974495142235e-03;1.619286791482221072e-03;1.413400694894867329e-03;1.355600492466236184e-03;1.261727514712013927e-03;1.199965558585372937e-03;1.168523771640496596e-03;1.139441117762425397e-03;1.085062291417474055e-03;9.001165270969843993e-04;8.308227889487064359e-04;8.231559313950686033e-04;7.995274905539759844e-04;7.821823122192052150e-04;7.502024581513744208e-04;6.503146341289749513e-04;5.869808740094647039e-04;5.863461682657589245e-04;5.212522472919568122e-04;5.140370409441496124e-04;5.105896684368391777e-04;4.808130263872967725e-04;4.712980605714678578e-04;4.580739209839786727e-04;4.473131732568578806e-04;4.271484726869467915e-04;4.204014234869574585e-04;4.147589258568640377e-04;4.111427530090218103e-04;4.042990513313393522e-04;3.994869359887427327e-04;3.909882184326053276e-04;3.863137635424235684e-04;3.784687436187116061e-04;3.771481295256824988e-04;3.727987009946843143e-04;3.627035946842033839e-04;3.509776779539527805e-04;3.382216773731438900e-04;3.278660467496338489e-04;3.247736400997216426e-04;3.172188410353516839e-04;3.158060234156920385e-04;3.100827450245910552e-04;2.852681216825503005e-04;2.784536641785431222e-04;2.782777534386336998e-04;2.677614655151969061e-04;2.478975828998695552e-04;2.430347787894912744e-04;2.422622369915712842e-04;2.372535340647330979e-04;2.306988334022447231e-04;2.272530511850173393e-04;2.263673953514049844e-04;2.235609276929724704e-04;2.214608021575731507e-04;2.194968647082240108e-04;2.163459116604642997e-04;2.156331039932024097e-04;2.151982206603890988e-04;2.088246960527229243e-04;2.083083538870380939e-04;2.066776235391446610e-04;2.065929380472965131e-04;2.046229814837959092e-04;2.028600891339668827e-04;2.012074780096832001e-04;1.990870578010160350e-04;1.966514207051004478e-04;1.943199050299396430e-04;1.935001156585629278e-04;1.915803132334731004e-04;1.904170700729445882e-04;1.851541782694021796e-04;1.835055795690729221e-04;1.831238974860035259e-04;1.798832530453320150e-04;1.778027112335730023e-04;1.774175235152695453e-04;1.763185397831940960e-04;1.711719666533849328e-04;1.687447844071734613e-04;1.673331634802576297e-04;1.661966057748602793e-04;1.660218896262227880e-04;1.630578335117425983e-04;1.613842342463310032e-04;1.611522921032843415e-04;1.604197060721230747e-04;1.602335233646233362e-04;1.596100895730039331e-04;1.578428092634637475e-04;1.577223395040872837e-04;1.552660552056390380e-04;1.548121564464437932e-04;1.528273172932834091e-04;1.512939059511838799e-04;1.511218175874900788e-04;1.508856283386302748e-04;1.466212283905081026e-04;1.465710918480144539e-04;1.452480098826853844e-04;1.433798583007977957e-04;1.426841653319741495e-04;1.394676349879047576e-04;1.360810987571796804e-04;1.360485969812816787e-04;1.347755137264774106e-04;1.346454025131905530e-04;1.345393610697297052e-04;1.336396237803679746e-04;1.324216067533528270e-04;1.316600757641853408e-04;1.297894475435801308e-04;1.295005838886577505e-04;1.291258523717677396e-04;1.284426517045409604e-04;1.282264163189101474e-04;1.275458591314675865e-04;1.273923195637696412e-04;1.272718065229780772e-04;1.261501315367664271e-04;1.229130768002962052e-04;1.228306632425277809e-04;1.217056255567575183e-04;1.216845920533619121e-04;1.209856482562273383e-04;1.206658865964587221e-04;1.190967817042897040e-04;1.187727919126451402e-04;1.187232801480126658e-04;1.183351541320327776e-04;1.168634163232922966e-04;1.168254628739202845e-04;1.160275991001902935e-04;1.157288590761241354e-04;1.146240949196036769e-04;1.141329748664791249e-04;1.138755668944619860e-04;1.136154018947804783e-04;1.132181851392627522e-04;1.130264945859092810e-04;1.123669825124944599e-04;1.120075245606856872e-04;1.109680302665940258e-04;1.099034409694553762e-04;1.091918197470452063e-04;1.090484685996438599e-04;1.088358194487365249e-04;1.077071881028673927e-04;1.075938592328670376e-04;1.074096567987567268e-04;1.071551935584963655e-04;1.064891764658773142e-04;1.064006163905051902e-04;1.060614856367723729e-04;1.053111490822575882e-04;1.048576358864963879e-04;1.039933708438208534e-04;1.037650745713642272e-04;1.034615062770681109e-04;1.033025166042019974e-04;1.030478916544630240e-04;1.028383865186998253e-04;1.026821503402168827e-04;1.025238972851284487e-04;1.017304615582275139e-04;1.012244801802838053e-04;1.007572537767749556e-04;1.006021457807984131e-04;1.005373773924920025e-04;1.002342886891942569e-04;1.000539137424546240e-04;9.991031832477085032e-05;9.938309031404939130e-05;9.923745560324443403e-05;9.918275911035237698e-05;9.894322937335087035e-05;9.883981780267900384e-05;9.875637765602228685e-05;9.854046319577463870e-05;9.794350846657046399e-05;9.782724560049317326e-05;9.760348423928782177e-05;9.738106681093362490e-05;9.683020480964970136e-05;9.656120607223344114e-05;9.653255326523973729e-05;9.600748252856132828e-05;9.538081068397372521e-05;9.512070661357866820e-05;9.469667825283208822e-05;9.431071270185836884e-05;9.402334717237521638e-05;9.359834210654585825e-05;9.337548433234139683e-05;9.336621749544025072e-05;9.319687377822653807e-05;9.295239580939344002e-05;9.276597089549747262e-05;9.268260511969372395e-05;9.243926271389257875e-05;9.224165306604335498e-05;9.218876104805293873e-05;9.192507311895350356e-05;9.176874522368607095e-05;9.169798650411435919e-05;9.159762597668922278e-05;9.080371081543592141e-05;8.993457662951320471e-05;8.984069892217610954e-05;8.935650115441325938e-05;8.927869864987347651e-05;8.911681233614739660e-05;8.817175161575531829e-05;8.816053966032670326e-05;8.811141244054579750e-05;8.793506729211875378e-05;8.777714097665859333e-05;8.774983833587356999e-05;8.766824278287847891e-05;8.761216989680028306e-05;8.758528326851901572e-05;8.698833650698039016e-05;8.683222827841244708e-05;8.671999483798299658e-05;8.668290416142072289e-05;8.652029160856968036e-05;8.649104423916512911e-05;8.634764033483980413e-05;8.625708069643095324e-05;8.550300835586863418e-05;8.527098984148169037e-05;8.514000236995620207e-05;8.512074694086113028e-05;8.497659590277458820e-05;8.468592670761188610e-05;8.449578663145465964e-05;8.362637994914490225e-05;8.355731121992294715e-05;8.341952948914115333e-05;8.327070428612558803e-05;8.313558962984680196e-05;8.298057989271950450e-05;8.261090661943055449e-05;8.241504578505191370e-05;8.225150241423430267e-05;8.205109346462077216e-05;8.201074879534186242e-05;8.154746607439276765e-05;8.148659837240693378e-05;8.130548785254640041e-05;8.127062501536296436e-05;8.108253511172814254e-05;8.106671059215921039e-05;8.057023793029837073e-05;8.054718637341610305e-05;8.021016855169443133e-05;8.014289005808695879e-05;7.989938602515413190e-05;7.974144553044885887e-05;7.968136518677735485e-05;7.957165390760512094e-05;7.937004001541245917e-05;7.909250583721634607e-05;7.892849708026651590e-05;7.873267702190963507e-05;7.867993435406267727e-05;7.840208964367304477e-05;7.838631016646406405e-05;7.809287713405229086e-05;7.801662625048557136e-05;7.786172555874172813e-05;7.731422760155190260e-05;7.681648896147625250e-05;7.676838791883749502e-05;7.671005113435666622e-05;7.643052243452748147e-05;7.616204488188579901e-05;7.578700702961942463e-05;7.565029829170962004e-05;7.561305638333557769e-05;7.505942203942829460e-05;7.495056160576153497e-05;7.478133911843946684e-05;7.466195488371307060e-05;7.460849715685386688e-05;7.425887452214514960e-05;7.418522229583462144e-05;7.370033527905082234e-05;7.367163602227490618e-05;7.316680230182418963e-05;7.297965168947497438e-05;7.293390619585362743e-05;7.249680606811174542e-05;7.246599942811731028e-05;7.239476256635288926e-05;7.229379792351959622e-05;7.220671654549170302e-05;7.187833299648321698e-05;7.181282209304718400e-05;7.146112741733051047e-05;7.144304157033312707e-05;7.139758355530403521e-05;7.128759663697304609e-05;7.124930470023728565e-05;7.108324639391721547e-05;7.095608662859611811e-05;7.075451129844376316e-05;7.066507660296503484e-05;7.052779832519140554e-05;7.043683911376591293e-05;7.036695830910106979e-05;6.995388755511383551e-05;6.854361663655916738e-05;6.843344371287594431e-05;6.842025892089573604e-05;6.813324415997464771e-05;6.809323827723886874e-05;6.774631311328727643e-05;6.721411392351521767e-05;6.669630219315437027e-05;6.663065158696215157e-05;6.651426415374760246e-05;6.634861110909870462e-05;6.556600260560637946e-05;6.533873183079323503e-05;6.483955752406508910e-05;6.482351436182170264e-05;6.298820953701406969e-05;6.284630634034888157e-05;6.282731508140256492e-05;6.270254656852843013e-05;6.137361078162843634e-05;6.129536571561897736e-05;6.054341938025230654e-05;6.038658378402769132e-05;9.865811584229750020e-01;6.378548723907771778e-02;6.111177185478729179e-02;4.599293063344974536e-02;4.502496438198335532e-02;4.474379051688467945e-02;4.467012291167043320e-02;3.677331143270109320e-02;3.636111682987325233e-02;3.512886424246104006e-02;3.433719213845998902e-02;2.983742738444033343e-02;2.926894468183138809e-02;2.491372548033311818e-02;2.466907701152771734e-02;2.238514626850362371e-02;2.107184950383573022e-02;1.649049517234998583e-02;1.568515068264312098e-02;1.425295505493085098e-02;1.364425731254215873e-02;1.297793773958077351e-02;1.148734410120626041e-02;9.192032469755119506e-03;9.096639506531212921e-03;8.973755794750789411e-03;6.682887416159743153e-03;5.358091644583195569e-03;4.599684766653184230e-03;4.021221811453032542e-03;3.264916162048828868e-03;3.073934335991376169e-03;2.528925447641370595e-03;1.952646959749496395e-03;1.661445424595477810e-03;1.370012652697593335e-03;1.279398980003571733e-03;1.162818577297036488e-03;9.454711223789676652e-04;9.276086183460798646e-04;9.143435086331102093e-04;9.052603806484054447e-04;8.895608899933190195e-04;8.833328306772175688e-04;8.610287530119386211e-04;8.595310732407760411e-04;8.485923271678717968e-04;8.393703065711289246e-04;8.390158967279010569e-04;8.306381782644539505e-04;8.303593970641543658e-04;8.251030001637513819e-04;8.223807411898362285e-04;8.183521533112162079e-04;7.968632922934968917e-04;7.965123070422701693e-04;7.953975438337718400e-04;7.943161247716844014e-04;7.877008597849426879e-04;7.875995732749574993e-04;7.862212330191633517e-04;7.854337918086903240e-04;7.748736995949095973e-04;7.611673247378121466e-04;7.558670557786566690e-04;7.437313798226595149e-04;7.404146099623045178e-04;7.161072202287541849e-04;7.154731626178096248e-04;7.101845078333362442e-04;7.100059078759948577e-04;7.065913217158184935e-04;7.065231001399797754e-04;7.033260534223286214e-04;7.032514878158802529e-04;7.021757068676472927e-04;6.980542322978081950e-04;6.958421003073737452e-04;6.937915463980093289e-04;6.928754890236799718e-04;6.912601903971783484e-04;6.848302156235516617e-04;6.842850027406888322e-04;6.830395039563938453e-04;6.825904477163748877e-04;6.820269568918210616e-04;6.808569693608640134e-04;6.792275504193054239e-04;6.790246120580321551e-04;6.720989197360095627e-04;6.717067403227552436e-04;6.687668710599829324e-04;6.677002413102406907e-04;6.669017732342046555e-04;6.647333691924170148e-04;6.499072789715483597e-04;6.494069939515326748e-04;6.466778966185287875e-04;6.463922773782239872e-04;6.440274049052003300e-04;6.435858269539319930e-04;6.416344083085339864e-04;6.405362003929312336e-04;6.398335127261105086e-04;6.397179345098627642e-04;6.346916685438016431e-04;6.343448076069270903e-04;6.314528616834761028e-04;6.308682405034014059e-04;6.302186798330120313e-04;6.297194610109166629e-04;6.274576383202717413e-04;6.265846353279612641e-04;6.236773961836046933e-04;6.236330481887012497e-04;6.235984236253892723e-04;6.198116328754441681e-04;6.196887780112327699e-04;6.149144276662923958e-04;6.098749692667527382e-04;6.091566219681440004e-04;6.090569111451870406e-04;6.056781381641003969e-04;6.044703054536806506e-04;6.034908625641171752e-04;6.025870735860917784e-04;6.023983084786388746e-04;5.970374844915430452e-04;5.954873424060966531e-04;5.950661761167917209e-04;5.935561637271512692e-04;5.922880351322847275e-04;5.920380598044549256e-04;5.844667043311513018e-04;5.834891216737628315e-04;5.794764780130533949e-04;5.792626689312234400e-04;5.789826793722370902e-04;5.737120577134623579e-04;5.724429820222727908e-04;5.723121706043203354e-04;5.707245675550037464e-04;5.701412438446428572e-04;5.695625596255337588e-04;5.692863948187329480e-04;5.683396149860780750e-04;5.672788983701439539e-04;5.649304796011450939e-04;5.634280200116532911e-04;5.632854368786471486e-04;5.622111100941532642e-04;5.616797950398839034e-04;5.612668115700488380e-04;5.602991441774535014e-04;5.598341528985820810e-04;5.593983074934774169e-04;5.591362263881384954e-04;5.578620223973906975e-04;5.553754095163490959e-04;5.527040097028790159e-04;5.523705231885027737e-04;5.513221562368664664e-04;5.508400849574780420e-04;5.497301291139143403e-04;5.476391920452797907e-04;5.449448148009166304e-04;5.448526562206033224e-04;5.435369788810102748e-04;5.429559400817105235e-04;5.418016499953394113e-04;5.404098117531384990e-04;5.402146013807535875e-04;5.379550368370675847e-04;5.378070895061887657e-04;5.377600643476276778e-04;5.369620777693956187e-04;5.358409521099781990e-04;5.357969172823851987e-04;5.326038642853242813e-04;5.323443500557670585e-04;5.310348104648986416e-04;5.300061324378136122e-04;5.299156296832159942e-04;5.298739882092157790e-04;5.295314475078974608e-04;5.270493576448770671e-04;5.266961228256577393e-04;5.260921361573258964e-04;5.248085911369062238e-04;5.242785368083940521e-04;5.240023441652568153e-04;5.239273080153948603e-04;5.229051668194891530e-04;5.203288629392603280e-04;5.201421273643395829e-04;5.181065710185434872e-04;5.163006389740219413e-04;5.157304446343646430e-04;5.145627216020105506e-04;5.136584162832600947e-04;5.131829494059620984e-04;5.129525000301914106e-04;5.116912048466215352e-04;5.081232443438079638e-04;5.080822754356418289e-04;5.070217598644362073e-04;5.058001948694642496e-04;5.049137717834446164e-04;5.046198932946249988e-04;5.042700276542627993e-04;5.031958302063249200e-04;5.030660698634360382e-04;5.022868714981262774e-04;5.016425043437037958e-04;5.009950034091507388e-04;4.997823408425203793e-04;4.995614251498481980e-04;4.990625695026032656e-04;4.962679908149757440e-04;4.949025782273246089e-04;4.944109635216844536e-04;4.926869360710883642e-04;4.923512802654198429e-04;4.913896829066803770e-04;4.911843507637153605e-04;4.908046786243296490e-04;4.872844410492692012e-04;4.871589696640308328e-04;4.855665829336009050e-04;4.840541286466722376e-04;4.815546280049756906e-04;4.809053553784196759e-04;4.805454912857980957e-04;4.801115077554146161e-04;4.777381770499612929e-04;4.766620340865176638e-04;4.756865762431807345e-04;4.750755842498358898e-04;4.720426032213692223e-04;4.714388138124288720e-04;4.693431498466556413e-04;4.685539119992888305e-04;4.675562530180411369e-04;4.668480670253837375e-04;4.642690625611824813e-04;4.640249876779014887e-04;4.633418192351961007e-04;4.612587563664446088e-04;4.601093292871633956e-04;4.591576484025883167e-04;4.584260943928069438e-04;4.573446191272252811e-04;4.557923182586688790e-04;4.550917531397880261e-04;4.544032825576146549e-04;4.541571342920788768e-04;4.538988258824450030e-04;4.534765137462109575e-04;4.532867449578677015e-04;4.531680342747882438e-04;4.529338166120061332e-04;4.524160026057984165e-04;4.522934126161394855e-04;4.509404961815296630e-04;4.508563760862854537e-04;4.502343219956534879e-04;4.493066941743747858e-04;4.474579155558072296e-04;4.464691308193771517e-04;4.449902512982924305e-04;4.437297337499342587e-04;4.433764347642877137e-04;4.432808552158218774e-04;4.407231394277758181e-04;4.372560876629001214e-04;4.366650528419340968e-04;4.347645608174174349e-04;4.339243511621755926e-04;4.329526476776805418e-04;4.307516457394714934e-04;4.294474145292357628e-04;4.278045486273029832e-04;4.275594906446702277e-04;4.272617366742538394e-04;4.270102339337196917e-04;4.258314086914786589e-04;4.250391355981964023e-04;4.242764807735292386e-04;4.236681446724914176e-04;4.217988641918315150e-04;4.183598618388705438e-04;4.160614489439367269e-04;4.147508729086841085e-04;4.135560394821078322e-04;4.117766703654360499e-04;4.092733665366699220e-04;4.084253018758140260e-04;4.076394425962486098e-04;4.073677744214881501e-04;4.058599438415408985e-04;4.039798111130252179e-04;4.026658185393416889e-04;4.024381194805703196e-04;4.007455040729022196e-04;3.993701371506521835e-04;3.988193527977907825e-04;3.984194737264147666e-04;3.965628183990662779e-04;3.955421431789620966e-04;3.927691959748491482e-04;3.922065578713038181e-04;3.903209732414280307e-04;3.896720664938133636e-04;3.887806236708185223e-04;3.886486340443161378e-04;3.870311086315814065e-04;3.868944739225376470e-04;3.861344569739235994e-04;3.857767774977667445e-04;3.850787890877941451e-04;3.850560130696401451e-04;3.845771230493580167e-04;3.843487353073802106e-04;3.839245945248762754e-04;3.838281777021517252e-04;3.835149896882712782e-04;3.834938032624206588e-04;3.826569169329879154e-04;3.792572765168338218e-04;3.788779784946828605e-04;3.782367998240348042e-04;3.779870855087219409e-04;3.772077786334017955e-04;3.762756930938932300e-04;3.742907710662220981e-04;3.732436101098797628e-04;3.730838351508565303e-04;3.711510252272255390e-04;3.709860103631805440e-04;3.694915101932982567e-04;3.680080749469201613e-04;3.662711465281403601e-04;3.644207458968395843e-04;3.631954462284055934e-04;3.631352610041078651e-04;3.620157331663890728e-04;3.616962978959090591e-04;3.608851406223190445e-04;3.607314390604484115e-04;3.600771523128050433e-04;3.584870586549394108e-04;3.568884387439634986e-04;3.552928917109777346e-04;3.543051247274959809e-04;3.501589995422186782e-04;3.482413469556683533e-04;3.434881820259316288e-04;3.405000215495400211e-04;3.383480319120188515e-04;3.372972051356531130e-04;3.360226627478752454e-04;3.353215894729585336e-04;3.341378464082729810e-04;3.338032598821146098e-04;3.326441449693700540e-04;3.304385746564499310e-04;3.288384653474800846e-04;3.276764878596948602e-04;3.273980565899919275e-04;3.252474600587923026e-04;3.237307217134443161e-04;3.229307542176160142e-04;3.201862073654260189e-04;3.184966749793178079e-04;3.114024763482023763e-04;3.109558185891335099e-04;3.096676654235674454e-04;3.070897257565664710e-04;3.054321582746239425e-04;3.051366055845066544e-04;3.024525344433029645e-04;3.006369750714956725e-04;2.977130742312588492e-04;2.951228451417726843e-04;2.948015609213525232e-04;2.935157594527743746e-04;2.899287311623241600e-04;2.894020241805244633e-04;2.885351141467221050e-04;2.879983373448185050e-04;2.823343112061794491e-04;2.822356598961962642e-04;2.723372220021042455e-04;2.718118569743989453e-04;2.683022015207753210e-04;2.619339777476781240e-04;2.440163257899945670e-04;2.437170078266337209e-04;2.311180576048874589e-04;2.310207151785576723e-04
9.751965936551052483e-01;1.046343754963518780e-01;9.630535465652267924e-02;8.168062109449059083e-02;7.788861121368936824e-02;4.368762020144587727e-02;4.209709500471078142e-02;3.574262704168827687e-02;3.461561732356616128e-02;3.359805349192074991e-02;3.346281111867899921e-02;3.251594757713727885e-02;3.204100229916130582e-02;2.790831915418170647e-02;2.781211176969464877e-02;2.271946446977620229e-02;2.264039862738343248e-02;1.930632387224527277e-02;1.888797024597138954e-02;1.804461433239742604e-02;1.739286676871266285e-02;1.620824863971099053e-02;1.592035770326613239e-02;1.353854181352309553e-02;1.161524165147152961e-02;1.055823236987317795e-02;9.618031644388163465e-03;7.946336131972603009e-03;6.845334120998650997e-03;6.198950244631775720e-03;5.967905049643895676e-03;5.846311368186693676e-03;5.476673070418490961e-03;4.798907114495648031e-03;4.295059935923760744e-03;4.169018662229535127e-03;3.796658507257134364e-03;3.725685510849313219e-03;3.591102214962977636e-03;3.509512288766731668e-03;3.479484977407171394e-03;3.327754691753803586e-03;3.192751283596702728e-03;3.170408459613750264e-03;3.153748706023235156e-03;3.040797568404952477e-03;2.962872417076564766e-03;2.911416454684764236e-03;2.797548737071533110e-03;2.772570443912479934e-03;2.742542550513428837e-03;2.699975118820241264e-03;2.697683312328982320e-03;2.610971328643389971e-03;2.558687045303457194e-03;2.393695877298849389e-03;2.317620169950199583e-03;2.198306257268175211e-03;2.165891857827285851e-03;2.056272369699803371e-03;1.957369483660305852e-03;1.947963205155980350e-03;1.891240093384762141e-03;1.856878057986269389e-03;1.773649189813867504e-03;1.694459795387962464e-03;1.574969702823583685e-03;1.541143590068159291e-03;1.424259072596687110e-03;1.367623289166582492e-03;1.283257817236671018e-03;1.157695465411729156e-03;1.096055162517424074e-03;9.244978250585224062e-04;8.368572263314157274e-04;7.857126509331170206e-04;7.512387227994418194e-04;7.132108951564736146e-04;7.072428416873941144e-04;6.741942733442064578e-04;6.362095827776981629e-04;6.133100414799354206e-04;5.667725137471570128e-04;5.641867269059565922e-04;5.413927384830322358e-04;5.107930036684527487e-04;4.920382481984537405e-04;4.715732943108027586e-04;4.655993214464428402e-04;4.643296359483066352e-04;4.483716891848798809e-04;4.414372802167625359e-04;4.357345686529323723e-04;4.173366545244833626e-04;4.079971730412783586e-04;4.046030905658642312e-04;3.995850454382891348e-04;3.910448341749552990e-04;3.900498457485627687e-04;3.838289620191275117e-04;3.723020028555603256e-04;3.670541153360705141e-04;3.664577004776280417e-04;3.648682828513512993e-04;3.406653090046482904e-04;3.403566443897142147e-04;3.373296651909132382e-04;3.236447737370950583e-04;3.044230929494709374e-04;2.922437246849159446e-04;2.741197742148054070e-04;2.663346054101349623e-04;2.647852741930405802e-04;2.591561091715791900e-04;2.590801654632787863e-04;2.570753858017923153e-04;2.570411251230354213e-04;2.429035698809818295e-04;2.381507340938175145e-04;2.369151467609077657e-04;2.342801906895756070e-04;2.279871267788988187e-04;2.264136539178940788e-04;2.248081408737429617e-04;2.210758532058716697e-04;2.202982205397523510e-04;2.125332011615240087e-04;2.071181237042038676e-04;2.054283660828374507e-04;2.040938460924230920e-04;2.019960301160226809e-04;2.004854050895176236e-04;1.992639749299494401e-04;1.971120315082867762e-04;1.965167319114481019e-04;1.948857429093551021e-04;1.938324502597577926e-04;1.931279138446807776e-04;1.902669297958628318e-04;1.894701478399242901e-04;1.824602045335460901e-04;1.794391488672430644e-04;1.766819305007376166e-04;1.713139696036604950e-04;1.709086192465721218e-04;1.659530320388419723e-04;1.631527182247326029e-04;1.588954935724829496e-04;1.574302333045780921e-04;1.565383218439342188e-04;1.546395430108374206e-04;1.543824370785830435e-04;1.534203497126084047e-04;1.514004427289454850e-04;1.489657137047982038e-04;1.477902742519247110e-04;1.467621448626874536e-04;1.466783184104333219e-04;1.449582393327343121e-04;1.447791526751529469e-04;1.445153443936231924e-04;1.438936921597612007e-04;1.436542547568346096e-04;1.426711712363700575e-04;1.422955403181988933e-04;1.419208145247509477e-04;1.398493305652398358e-04;1.396387258868619918e-04;1.389139360383360099e-04;1.371163223152540287e-04;1.369015432790689582e-04;1.365176612145138136e-04;1.350053595657144145e-04;1.342814959642622374e-04;1.330770567245597553e-04;1.329835524175943722e-04;1.322718051535762924e-04;1.311173744285569107e-04;1.307204676979792444e-04;1.300253307264284783e-04;1.297072290112041891e-04;1.293117352762504035e-04;1.277745190191203388e-04;1.259612404079383033e-04;1.257449398175139942e-04;1.255325067485739876e-04;1.246366260167875524e-04;1.242635295990597284e-04;1.242416819866225893e-04;1.240592728765090534e-04;1.223839755148773973e-04;1.220676499752985271e-04;1.216718835649622648e-04;1.214876803799430296e-04;1.213345137735424416e-04;1.202499526751098951e-04;1.198761907298555226e-04;1.193392594538586970e-04;1.179682385474590276e-04;1.171190620886110008e-04;1.168952000057076046e-04;1.154945575230382772e-04;1.137294366989042058e-04;1.112083950153776497e-04;1.110567197417773421e-04;1.110051700776786373e-04;1.103756253450497902e-04;1.099735858503039370e-04;1.094871294360960683e-04;1.084435584204774801e-04;1.071981820014426026e-04;1.071117739708852233e-04;1.070505425788545803e-04;1.062377378050610710e-04;1.060705182827056990e-04;1.059126974406861483e-04;1.058926049388218496e-04;1.054931096865791701e-04;1.053600136109525420e-04;1.052243780930455544e-04;1.051932877788047134e-04;1.049389344762866386e-04;1.048369480412447485e-04;1.047228680574839577e-04;1.042937516803151183e-04;1.037679891938687686e-04;1.035866268260700606e-04;1.033638149731054052e-04;1.020953660623980360e-04;1.018459128010916823e-04;1.009303525673046809e-04;1.006985663400242925e-04;1.002442812738036710e-04;1.001733451342372478e-04;9.978855577245377545e-05;9.961511554734438494e-05;9.932146327278229840e-05;9.884799376901690353e-05;9.807440870436902357e-05;9.682837064465261274e-05;9.662239344716740813e-05;9.658921144067613145e-05;9.621085765974341170e-05;9.571744096751683356e-05;9.567950355437310206e-05;9.532381658713430517e-05;9.525359110291683508e-05;9.507422765818218701e-05;9.495875409718750710e-05;9.464165422630322201e-05;9.386006159201294252e-05;9.333689973205101787e-05;9.330802964939328710e-05;9.255121900073450068e-05;9.252783952265932063e-05;9.227057477958503439e-05;9.181415891540717236e-05;9.166370256927962919e-05;9.153900371748373754e-05;9.120484411041293170e-05;9.114121704292765748e-05;9.109185949899641533e-05;9.085649803154545966e-05;9.080763044318189848e-05;9.073704273416594631e-05;9.018871037686105186e-05;9.014594330545092071e-05;8.993132217906430078e-05;8.979662073691826584e-05;8.961418988373963152e-05;8.959717605559276894e-05;8.932764911610272722e-05;8.890758072846854921e-05;8.877005397149719890e-05;8.867670221145203409e-05;8.861343578899915242e-05;8.835017022380123384e-05;8.814226534307136496e-05;8.803671446296938642e-05;8.762535762494287226e-05;8.742520014195700052e-05;8.728244565927271862e-05;8.667775466524669983e-05;8.644835430195611033e-05;8.625291982632685497e-05;8.618775729996189597e-05;8.590822749084926974e-05;8.580400015105368308e-05;8.546977005978449759e-05;8.532182377044843940e-05;8.506644490598030408e-05;8.498314632717872267e-05;8.479890475997587990e-05;8.475582614939119108e-05;8.471462963767712254e-05;8.452053656771497980e-05;8.428724320712026991e-05;8.414502941744016510e-05;8.412120589296816458e-05;8.399762052545449507e-05;8.391051203961733202e-05;8.383706818859095378e-05;8.362113286837034984e-05;8.353224497970470708e-05;8.342730305529357372e-05;8.329989409661903784e-05;8.327392740641995680e-05;8.312826189933278137e-05;8.302980340275275249e-05;8.297353856139565479e-05;8.287327502918622423e-05;8.281186817968033155e-05;8.211477335482515912e-05;8.189088164668399379e-05;8.172862727377250313e-05;8.168039802556673339e-05;8.118341500708591886e-05;8.114693117879085262e-05;8.090586720521655774e-05;8.079642211389540907e-05;8.002574120074808315e-05;7.995654563632489139e-05;7.954543084734410090e-05;7.932588696086660012e-05;7.925148608638741318e-05;7.867487256193814854e-05;7.865065925560461629e-05;7.856010217843977471e-05;7.834868352982470334e-05;7.820507337960321654e-05;7.818369031850062499e-05;7.786108782642582496e-05;7.759225016268588005e-05;7.720409973952386531e-05;7.714336227677829521e-05;7.697642882571276244e-05;7.677084933019803488e-05;7.671136094679749341e-05;7.643182907234614954e-05;7.640008204643491333e-05;7.614580398304075673e-05;7.592859235352778262e-05;7.590293164011824756e-05;7.585087243892934183e-05;7.535762690544726267e-05;7.533061800400628555e-05;7.502539873216612100e-05;7.489199773769381345e-05;7.463848217442029041e-05;7.448113731884652730e-05;7.420300696742158821e-05;7.384040538376110321e-05;7.382048516157415849e-05;7.362394011567512326e-05;7.252908609607801706e-05;7.251588554528584239e-05;7.219515428918348943e-05;7.211287353707564467e-05;7.187764581494304392e-05;7.185738514042867733e-05;7.107672268896120043e-05;7.091261322446751716e-05;7.075828627300449042e-05;7.063545251511688008e-05;7.058951099263103266e-05;7.047244200247095903e-05;6.997689875114800312e-05;6.996493543024758085e-05;6.973659848413338389e-05;6.965608127563209702e-05;6.956833728781257017e-05;6.871903595811269848e-05;6.870084696067196872e-05;6.840357238038334033e-05;6.826145778680766394e-05;6.805065270435778000e-05;6.798498890088611039e-05;6.793571233410254434e-05;6.783349008752527606e-05;6.757170358932396289e-05;6.753109358828312040e-05;6.624033138885868555e-05;6.600068709982653023e-05;6.549747971083415255e-05;6.541780584419851349e-05;6.535723907194155582e-05;6.436878377429065855e-05;6.419821865179034244e-05;6.331907371128866796e-05;6.302859754677411286e-05;6.162916417487279556e-05;6.138240601177608231e-05;6.110292386412952495e-05;6.047896522672973295e-05;6.034956120960984513e-05;6.016742033865003764e-05;5.870858407990989990e-05;5.868004272499983531e-05;5.818413570653835012e-05;5.660018464898592094e-05;9.830850297533064719e-01;7.084607418305756410e-02;6.942568006655794322e-02;5.435304352175027859e-02;4.941318894157246261e-02;4.819472201969917519e-02;4.762468374976373126e-02;4.431724760627499260e-02;4.422360595583798432e-02;3.805523751812828898e-02;3.768805870641118300e-02;3.318086997595846160e-02;3.298352992397514394e-02;2.970050256599376937e-02;2.701422644124249622e-02;2.562659784934714219e-02;2.437245678737265386e-02;1.716851645306571514e-02;1.581391537006159725e-02;1.497895595440082439e-02;1.425180508935780001e-02;1.380817009386843194e-02;1.355928509050695861e-02;1.033110636848018349e-02;9.452193736205977484e-03;8.282754637539494966e-03;7.050751269971150537e-03;5.861667744569265710e-03;4.431735640468903621e-03;4.188458628296677644e-03;3.672723928911952266e-03;2.715570012126037203e-03;2.677088573861162359e-03;2.646611578452037240e-03;1.938900897816729077e-03;1.428014438325448223e-03;1.412878869769621567e-03;1.304573672229145890e-03;1.106454815279762525e-03;1.084303069543735790e-03;1.037909985208925346e-03;1.023652140382178433e-03;1.002607185771159934e-03;9.841373141516033315e-04;8.903483686301477901e-04;8.875238785696682765e-04;8.714649150931076975e-04;8.621990475426071290e-04;8.537458938002301639e-04;8.417109333452393828e-04;8.333171215179383754e-04;8.236479844949153289e-04;8.213427141563955577e-04;7.929052416773857848e-04;7.634514892034098294e-04;7.556197201357764404e-04;7.552926531528572846e-04;7.513347449277299472e-04;7.508742522140918500e-04;7.480367758685781436e-04;7.474446992251585625e-04;7.403015783979348657e-04;7.398871639299715386e-04;7.377585512593904911e-04;7.373072790907860517e-04;7.365106630751603245e-04;7.350808267322298103e-04;7.344245449595338936e-04;7.286084291032257718e-04;7.261395557479158889e-04;7.245601492732947494e-04;7.240152185551417029e-04;7.226749792555519454e-04;7.184966496958307717e-04;7.182387520619424020e-04;7.145828643589570862e-04;7.123977577592933855e-04;6.973364006763817279e-04;6.964095683107790176e-04;6.910084425478025573e-04;6.865450007649469104e-04;6.862850236061746522e-04;6.841954009330541899e-04;6.833777697104320963e-04;6.831929479193497856e-04;6.796165378684542770e-04;6.737690422142736954e-04;6.711020117249846166e-04;6.707581158797548248e-04;6.703918441306732376e-04;6.643372177372483490e-04;6.636425218109177036e-04;6.623644506894110599e-04;6.601378918708290192e-04;6.594532165513257568e-04;6.586586595972927002e-04;6.580036195699122967e-04;6.549182266190402583e-04;6.538732923069428844e-04;6.512903176855425929e-04;6.500722851200783914e-04;6.417398398544779583e-04;6.413870326765013603e-04;6.390489595930053416e-04;6.384801692397257212e-04;6.374264727792588493e-04;6.357368639441757750e-04;6.323008781324284538e-04;6.319677637531363528e-04;6.305377332441079253e-04;6.280789946478610494e-04;6.278143273440006233e-04;6.259109075517028725e-04;6.229300049971623525e-04;6.215591549351052623e-04;6.213552291876710959e-04;6.208964468031042934e-04;6.175398465984071120e-04;6.130738025698857698e-04;6.045389680060853956e-04;6.044253178772293275e-04;6.037968410662787741e-04;6.018447563947106798e-04;6.017102045281424528e-04;6.004195781296852233e-04;5.997957342946151019e-04;5.990521102272597029e-04;5.988771164761559152e-04;5.968319618442188878e-04;5.964078674647316355e-04;5.939481521113682732e-04;5.919352365712298673e-04;5.896130108609953790e-04;5.864874893420433510e-04;5.862186640520535832e-04;5.816232500178837540e-04;5.809209616633956861e-04;5.808744911650532859e-04;5.790529580092688500e-04;5.777022141541471398e-04;5.765428822392850827e-04;5.753335745727726361e-04;5.740436022685306127e-04;5.718786143186401763e-04;5.710485513605193051e-04;5.664463901196368622e-04;5.644432140397588745e-04;5.619615792227343736e-04;5.611134389821099055e-04;5.600204103939364396e-04;5.597259908611196743e-04;5.557609115170718695e-04;5.546997707508390975e-04;5.544419833550001024e-04;5.515335040442364634e-04;5.504491165987510006e-04;5.502455656407004986e-04;5.501337709020988429e-04;5.494870204939316174e-04;5.489649421941548198e-04;5.473805125562824451e-04;5.460851327540250854e-04;5.449523383861365174e-04;5.446351796939541802e-04;5.444358840113401642e-04;5.420751596514044451e-04;5.397558907963705306e-04;5.383122261654196090e-04;5.351938224205129817e-04;5.344454621317144436e-04;5.322760652204554851e-04;5.294945333969445968e-04;5.290024935767361110e-04;5.288847367039847900e-04;5.278139695516606599e-04;5.275233267091884682e-04;5.273520668232983344e-04;5.271589412326120432e-04;5.224631308704568615e-04;5.221873073057512870e-04;5.220332741793850140e-04;5.209671421493582578e-04;5.203878077902429839e-04;5.199725583371032781e-04;5.196306402024947332e-04;5.186510367260553211e-04;5.151913041710945830e-04;5.149678973411268238e-04;5.133105540455832868e-04;5.110785420634488029e-04;5.081678427765618780e-04;5.068927786470213154e-04;5.049282483554753736e-04;5.043986420998483123e-04;5.042825169331462392e-04;5.038337336206974741e-04;5.029869683120616894e-04;5.026417915089376708e-04;5.020345165319773989e-04;4.998988867193308048e-04;4.991083789739319404e-04;4.989181259687687237e-04;4.953225729088437095e-04;4.952687139941844025e-04;4.947141251703690177e-04;4.934678579082064269e-04;4.934498966559183221e-04;4.929205924267767878e-04;4.912403127615284741e-04;4.903567595974444660e-04;4.885982148506851216e-04;4.874930064763775155e-04;4.870772456799531461e-04;4.864660551738827837e-04;4.854519770485815513e-04;4.833172130845807767e-04;4.823456721238863500e-04;4.799243841236784029e-04;4.780870172578598871e-04;4.775627666106393413e-04;4.772355523310003881e-04;4.770083582733542459e-04;4.747213559770226501e-04;4.742032933029293883e-04;4.741205016386850933e-04;4.740295662680586459e-04;4.739598223163939399e-04;4.730414648715056559e-04;4.727213500118585834e-04;4.712629429792141518e-04;4.706776248499666563e-04;4.702612369248411581e-04;4.699944592127179273e-04;4.681984506629958726e-04;4.680261357758273974e-04;4.653508749145482621e-04;4.640015463426372193e-04;4.632645249378603393e-04;4.615446488187001394e-04;4.600644543190311178e-04;4.591879755454471106e-04;4.587642446122726717e-04;4.564412276110343795e-04;4.558580375487067773e-04;4.544108663046845446e-04;4.539281931239520329e-04;4.538383534748200256e-04;4.533334921952828400e-04;4.522167067021370447e-04;4.513714056673268776e-04;4.511624301311810675e-04;4.501096436868311278e-04;4.482392566513020604e-04;4.477480592979726564e-04;4.473516264842888369e-04;4.472659909576538468e-04;4.466994808348656847e-04;4.461631547093498950e-04;4.444912891855347685e-04;4.422645173731001920e-04;4.418762404604402515e-04;4.418202931349029562e-04;4.399810686205859805e-04;4.397001142913832235e-04;4.382077542566190499e-04;4.376333818702768711e-04;4.372465198617564745e-04;4.334946973094381444e-04;4.332244967458132230e-04;4.329569978995821060e-04;4.313201898352344026e-04;4.294026413597247754e-04;4.292268171208082992e-04;4.287145996642411847e-04;4.278010327375905849e-04;4.276380129585582589e-04;4.272612544904463090e-04;4.269772568464235665e-04;4.257597022906176964e-04;4.255063923543052698e-04;4.243888081190316428e-04;4.234987411897959703e-04;4.233521655714064065e-04;4.220471859918289732e-04;4.204257170802352386e-04;4.178821220549915018e-04;4.165881960256171963e-04;4.155800348469398703e-04;4.155090537960751205e-04;4.130071216300445895e-04;4.129679489417088811e-04;4.122087174038530739e-04;4.119293734141937779e-04;4.116737796793376808e-04;4.111576119176206263e-04;4.108902588822170598e-04;4.098594303366969349e-04;4.063890051236074860e-04;4.046452867932743766e-04;4.044289052566124804e-04;4.039833065721565612e-04;4.027104713835480518e-04;4.019474729117579232e-04;4.011428215818202110e-04;3.996097488262284982e-04;3.995474799161666908e-04;3.984482282353287797e-04;3.955539656699006367e-04;3.950785214433691025e-04;3.944032034096411118e-04;3.935658551190859096e-04;3.930107390160338674e-04;3.914193026555592525e-04;3.911495267167999280e-04;3.903938048528215977e-04;3.899967840168860108e-04;3.895515285987649363e-04;3.884586092015388241e-04;3.848395512657586744e-04;3.835284585033310102e-04;3.822781348116397718e-04;3.816900119994340117e-04;3.809575514095496582e-04;3.802972679602415959e-04;3.787803977202252453e-04;3.783857918918523476e-04;3.772236817716085591e-04;3.771283062136420740e-04;3.770597688165176742e-04;3.756929392714097892e-04;3.753421472326789825e-04;3.734434519056848518e-04;3.729463705884234772e-04;3.670244400338856599e-04;3.667468183199794210e-04;3.653969795159322143e-04;3.648360926931398405e-04;3.630351267632387908e-04;3.627016784033332340e-04;3.602148881590927433e-04;3.596901291635559565e-04;3.579706075612400229e-04;3.558281529743546282e-04;3.552029028129929217e-04;3.532215792397963984e-04;3.525389572276855219e-04;3.514084504085662861e-04;3.511868714131972111e-04;3.498423433169051263e-04;3.494290113255071602e-04;3.483382430524470494e-04;3.478260483227765799e-04;3.445039427521400985e-04;3.412823725070113375e-04;3.407318441304657639e-04;3.398636902191097130e-04;3.383164227747223669e-04;3.372894321651693757e-04;3.347219859800231682e-04;3.340252282785341519e-04;3.337945612163661815e-04;3.333624700519182576e-04;3.310672945664720106e-04;3.298153256457945224e-04;3.278133053947596522e-04;3.269232047197334211e-04;3.267708445261633472e-04;3.257062434152769095e-04;3.252379458189389328e-04;3.248118408381998933e-04;3.240812137992096081e-04;3.237713513650660444e-04;3.106560171709977797e-04;3.079612980052421614e-04;3.077108056814265155e-04;3.057452234615409456e-04;2.991257233188355656e-04;2.982736526891526115e-04;2.967936756534837392e-04;2.938247468285389366e-04;2.932752824930436736e-04;2.917241663492882811e-04;2.831996336209699656e-04;2.827134843768224805e-04;2.822686351389964250e-04;2.822132614041923627e-04;2.671654589621972752e-04;2.649820125440835341e-04;2.617970851377405270e-04;2.571814235895555109e-04;2.568035317245719257e-04;2.540027370549912300e-04;2.504559361119091938e-04;2.496433388885594350e-04;2.493710228089021956e-04;2.395737130584211789e-04;2.248870802809287725e-04;2.236478022813170863e-04;1.992516595965016109e-04;1.982695688684569472e-04
